energy low [eV],energy high [eV],energy mid [eV],mean,std. dev.
0.001,0.0010470399110535467,0.0010235199555267732,0.0,0.0
0.0010470399110535467,0.0010962925753390188,0.0010716662431962828,0.0,0.0
0.0010962925753390188,0.0011478620805716298,0.0011220773279553243,0.0,0.0
0.0011478620805716298,0.001201857410743458,0.0011748597456575438,0.0,0.0
0.001201857410743458,0.0012583926764438763,0.0012301250435936672,0.0,0.0
0.0012583926764438763,0.0013175873560142307,0.0012879900162290534,0.0,0.0
0.0013175873560142307,0.0013795665480464177,0.0013485769520303241,0.0,0.0
0.0013795665480464177,0.0014444612357589696,0.0014120138919026938,0.0,0.0
0.0014444612357589696,0.0015124085638093675,0.0014784348997841684,0.0,0.0
0.0015124085638093675,0.0015835521281275823,0.0015479803459684748,0.0,0.0
0.0015835521281275823,0.0016580422793833582,0.0016207972037554702,0.0,0.0
0.0016580422793833582,0.0017360364407285694,0.0016970393600559638,0.0,0.0
0.0017360364407285694,0.0018176994404861568,0.001776867940607363,0.0,0.0
0.0018176994404861568,0.001903203860488707,0.0018604516504874319,0.0,0.0
0.001903203860488707,0.0019927304008028625,0.0019479671306457847,0.0,0.0
0.0019927304008028625,0.0020864682616103273,0.0020395993312065947,0.0,0.0
0.0020864682616103273,0.0021846155430525253,0.002135541902331426,0.0,0.0
0.0021846155430525253,0.0022873796638839114,0.002235997603468218,0.0,0.0
0.0022873796638839114,0.0023949777998187017,0.0023411787318513063,0.0,0.0
0.0023949777998187017,0.0025076373424973925,0.002451307571158047,0.0,0.0
0.0025076373424973925,0.002625596380043022,0.002566616861270207,0.0,0.0
0.002625596380043022,0.0027491042002227594,0.0026873502901328906,0.0,0.0
0.0027491042002227594,0.0028784218172781696,0.0028137630087504643,0.0,0.0
0.0028784218172781696,0.0030138225235375226,0.002946122170407846,0.0,0.0
0.0030138225235375226,0.003155592466975903,0.0030847074952567127,0.0,0.0
0.003155592466975903,0.003304031255943691,0.0032298118614597967,0.0,0.0
0.003304031255943691,0.0034594525923414203,0.0033817419241425556,0.0,0.0
0.0034594525923414203,0.0036221849345791216,0.003540818763460271,0.0,0.0
0.0036221849345791216,0.00379257219172122,0.003707378563150171,0.0,0.0
0.00379257219172122,0.003970974450283936,0.0038817733210025785,0.0,0.0
0.003970974450283936,0.004157768735221199,0.004064371592752568,1e-08,1e-08
0.004157768735221199,0.004353349806707221,0.00425555927096421,0.0,0.0
0.004353349806707221,0.004558130994399704,0.0044557404005534625,0.0,0.0
0.004558130994399704,0.0047725450709466795,0.004665338032673192,0.0,0.0
0.0047725450709466795,0.004997045166583053,0.004884795118764867,0.0,0.0
0.004997045166583053,0.005232105726749675,0.005114575446666364,0.0,0.0
0.005232105726749675,0.005478223514758732,0.005355164620754204,0.0,0.0
0.005478223514758732,0.00573591866162443,0.005607071088191581,0.0,0.0
0.00573591866162443,0.0060057357652776215,0.005870827213451026,0.0,0.0
0.0060057357652776215,0.006288245041487384,0.0061469904033825025,1e-08,1e-08
0.006288245041487384,0.006584043528921856,0.00643614428520462,0.0,0.0
0.006584043528921856,0.00689375635089502,0.006738899939908438,0.0,0.0
0.00689375635089502,0.0072180380364659435,0.007055897193680482,1e-08,1e-08
0.0072180380364659435,0.007557573903682418,0.007387805970074181,1e-08,1e-08
0.007557573903682418,0.007913081507892243,0.00773532770578733,2e-08,1.3844373104863458e-08
0.007913081507892243,0.00828531215818296,0.0080991968330376,2e-08,1.3844373104863458e-08
0.00828531215818296,0.008675052505154754,0.008480182331668857,4e-08,2.362907813126304e-08
0.008675052505154754,0.00908312620338208,0.008879089354268416,0.0,0.0
0.00908312620338208,0.009510395652077312,0.009296760927729696,3.0000000000000004e-08,1.6583123951776998e-08
0.009510395652077312,0.009957763817635065,0.00973407973485619,1e-08,1e-08
0.009957763817635065,0.010426176141908838,0.010191969979771951,2e-08,1.3844373104863458e-08
0.010426176141908838,0.01091662254025284,0.010671399341080839,3.0000000000000004e-08,1.6583123951776998e-08
0.01091662254025284,0.011430139493551475,0.011173381016902156,3.0000000000000004e-08,1.6583123951776998e-08
0.011430139493551475,0.011967812238657767,0.01169897586610462,6.999999999999999e-08,2.2912878474779198e-08
0.011967812238657767,0.012530777061869775,0.01224929465026377,6.000000000000001e-08,2.614064523559687e-08
0.012530777061869775,0.01312022370029195,0.012825500381080861,3.0000000000000004e-08,2.19848432637882e-08
0.01312022370029195,0.013737397856156318,0.013428810778224134,6.999999999999999e-08,2.70801280154532e-08
0.013737397856156318,0.014383603829417092,0.014060500842786705,1.4e-07,3.559026084010436e-08
0.014383603829417092,0.015060207274182318,0.014721905551799705,6e-08,2.179449471770337e-08
0.015060207274182318,0.01576863808480783,0.015414422679495074,1.4000000000000004e-07,2.9154759474226494e-08
0.01576863808480783,0.016510393417752758,0.016139515751280295,1.2000000000000002e-07,2.9297326385411577e-08
0.016510393417752758,0.017287040855582907,0.01689871713666783,4e-08,2.362907813126304e-08
0.017287040855582907,0.018100221719808556,0.01769363128769573,1.0000000000000001e-07,3.227486121839514e-08
0.018100221719808556,0.01895165453955782,0.018525938129683187,2.1000000000000003e-07,4.716990566028302e-08
0.01895165453955782,0.019843138683416164,0.01939739661148699,1.6000000000000003e-07,3.785938897200182e-08
0.019843138683416164,0.020776558162107252,0.020309848422761706,1.3e-07,3.5707142142714254e-08
0.020776558162107252,0.021753885610051614,0.021265221886079433,2.1000000000000005e-07,4.490731195102491e-08
0.021753885610051614,0.02277718645421747,0.02226553603213454,2.5000000000000004e-07,4.7871355387816897e-08
0.02277718645421747,0.023848623279073906,0.023312904866645688,3.1e-07,5.259911279353169e-08
0.023848623279073906,0.02497046039687107,0.02440954183797249,3.6e-07,6.934214687571575e-08
0.02497046039687107,0.026145068632905992,0.02555776451488853,2.9000000000000003e-07,5.1397146483697576e-08
0.026145068632905992,0.02737493033588676,0.026759999484396377,3.5000000000000004e-07,6.614378277661475e-08
0.02737493033588676,0.02866264462398391,0.028018787479935338,3.100000000000001e-07,5.259911279353165e-08
0.02866264462398391,0.03001093287765553,0.02933678875081972,4.6e-07,7.314369419163894e-08
0.03001093287765553,0.031422644490854405,0.030716788684254967,6.799999999999998e-07,8.958236433584463e-08
0.031422644490854405,0.03290076289277141,0.03216170369181291,4.3999999999999997e-07,6.500000000000001e-08
0.03290076289277141,0.034448411852841206,0.033674587372806306,6.4e-07,8.301606270274849e-08
0.034448411852841206,0.0360688620823348,0.035258636967588006,8.799999999999999e-07,1.3316656236958786e-07
0.0360688620823348,0.03776553814649047,0.03691720011441263,8.200000000000003e-07,7.842193570679055e-08
0.03776553814649047,0.039542025701790676,0.03865378192414057,9.6e-07,8.621678104251716e-08
0.039542025701790676,0.041402079073679966,0.040472052387735324,8.499999999999999e-07,1.2076147288491205e-07
0.041402079073679966,0.04334962919073777,0.04237585413220887,1.0399999999999998e-06,1.037625494418227e-07
0.04334962919073777,0.04538879189207431,0.04436921054140604,1.24e-06,1.0255080041943436e-07
0.04538879189207431,0.04752387662550542,0.046456334258789866,1.7800000000000001e-06,1.5700318468107577e-07
0.04752387662550542,0.04975939555488892,0.04864163609019717,1.6499999999999997e-06,1.2332207155790634e-07
0.04975939555488892,0.052100073095869136,0.05092973432537903,1.8800000000000004e-06,1.2838743448380485e-07
0.052100073095869136,0.05455085590018209,0.05332546449802561,1.9799999999999997e-06,1.464297328641513e-07
0.05455085590018209,0.057116923309621495,0.05583388960490179,1.91e-06,1.1536174987114845e-07
0.057116923309621495,0.059803698301758336,0.05846031080568992,2.21e-06,1.5524174696260026e-07
0.059803698301758336,0.06261685895054618,0.06121027862615226,2.48e-06,1.5473094928509492e-07
0.06261685895054618,0.06556235042603231,0.06408960468828925,2.7899999999999995e-06,2.0900558206261726e-07
0.06556235042603231,0.06864639755853433,0.06710437399228332,2.8799999999999995e-06,1.774354342664774e-07
0.06864639755853433,0.07187551799383418,0.07026095777618425,2.9999999999999997e-06,2.184223737013529e-07
0.07187551799383418,0.07525653596719173,0.07356602698051296,3.389999999999999e-06,1.5550991393905955e-07
0.07525653596719173,0.07879659672528647,0.0770265663462391,3.89e-06,2.097021697551075e-07
0.07879659672528647,0.08250318162656611,0.08064988917592629,3.98e-06,2.0047859403603785e-07
0.08250318162656611,0.08638412395191439,0.08444365278924025,4.3e-06,1.9578900207451202e-07
0.08638412395191439,0.090447625459051,0.08841587470548269,4.929999999999999e-06,1.9659603251337545e-07
0.090447625459051,0.09470227371564925,0.09257494958735013,5.150000000000001e-06,2.4366985862022365e-07
0.09470227371564925,0.099157060247802,0.09692966698172563,5.489999999999999e-06,2.5019992006393694e-07
0.099157060247802,0.10382139954218973,0.10148922989499587,5.399999999999999e-06,2.3804761428476185e-07
0.10382139954218973,0.10870514894210906,0.1062632742421494,6.449999999999998e-06,2.6536138880151217e-07
0.10870514894210906,0.1138186294794084,0.11126188921075873,6.46e-06,2.695211803674551e-07
0.1138186294794084,0.11917264768635635,0.11649563858288238,7.320000000000001e-06,2.725344014982315e-07
0.11917264768635635,0.1247785184335382,0.12197558305994727,7.5e-06,2.9368350311176914e-07
0.1247785184335382,0.13064808884204515,0.12771330363779168,8.2e-06,3.1191612120354907e-07
0.13064808884204515,0.1367937633204908,0.13372092608126798,8.199999999999998e-06,2.772634126602379e-07
0.1367937633204908,0.1432285297797666,0.1400111465501287,8.72e-06,2.880682789432647e-07
0.1432285297797666,0.14996598708093709,0.14659725843035185,9.1e-06,2.99652576606087e-07
0.14996598708093709,0.15702037377428169,0.1534931804276094,9.820000000000001e-06,2.616135827258696e-07
0.15702037377428169,0.16440659819021855,0.1607134859822501,1.0499999999999998e-05,2.7195281453468075e-07
0.16440659819021855,0.1721402699457026,0.16827343406796058,1.0990000000000002e-05,3.0770657018226163e-07
0.1721402699457026,0.18023773293268194,0.17618900143919228,1.099e-05,2.65157186086538e-07
0.18023773293268194,0.1887160998583282,0.18447691639550506,1.1209999999999998e-05,3.624798844993582e-07
0.1887160998583282,0.19759328841003618,0.19315469413418218,1.102e-05,3.4638610441721415e-07
0.19759328841003618,0.20688805912162206,0.2022406737658291,1.0969999999999998e-05,3.761980861195356e-07
0.20688805912162206,0.21662005502074405,0.21175405707118305,1.204e-05,3.161223391874325e-07
0.21662005502074405,0.226809843141334,0.22171494908103903,1.189e-05,3.637421247715652e-07
0.226809843141334,0.2374789579887712,0.2321444005650526,1.201969645376353e-05,3.1886657643976814e-07
0.2374789579887712,0.24864994704965193,0.24306445251921155,1.2729999999999997e-05,3.8076677025882317e-07
0.24864994704965193,0.26034641844233664,0.2544981827459943,1.2879999999999994e-05,3.250384592629096e-07
0.26034641844233664,0.2725930908089736,0.26646975462565514,1.2359999999999997e-05,3.9345690149409805e-07
0.2725930908089736,0.28541584555443905,0.2790044681817063,1.156e-05,3.3735490708352475e-07
0.28541584555443905,0.29884178154259267,0.29212881354851583,1.242e-05,2.9108990592827746e-07
0.29884178154259267,0.31289927236543963,0.3058705269540162,1.226e-05,3.404898432161135e-07
0.31289927236543963,0.3276180263062294,0.3202586493358345,1.2089999999999998e-05,3.46073209981168e-07
0.3276180263062294,0.34302914912321286,0.33532358771472115,1.1400000000000001e-05,2.996525766060852e-07
0.34302914912321286,0.3591652097867426,0.35109717945497776,1.1519999999999998e-05,3.0785548557724473e-07
0.3591652097867426,0.3760603093086394,0.367612759547691,1.1239999999999997e-05,3.296083534540165e-07
0.3760603093086394,0.393750152809287,0.3849052310589632,1.129e-05,3.5492957047842474e-07
0.393750152809287,0.41227212497475624,0.4030111388920216,1.0729999999999997e-05,2.432077301403091e-07
0.41227212497475624,0.4316653690634254,0.4219687470190908,1.0349999999999997e-05,3.4970225430595866e-07
0.4316653690634254,0.4519708696290653,0.4418181193462454,1.0249999999999998e-05,3.7416573867739567e-07
0.4519708696290653,0.47323153913521065,0.462601204382138,9.609999999999998e-06,3.2309699266113184e-07
0.47323153913521065,0.49549230864386395,0.4843619238895373,9.489999999999999e-06,2.6476404589747684e-07
0.49549230864386395,0.5188002227701878,0.5071462657070258,9.400000000000001e-06,2.3584952830141518e-07
0.5188002227701878,0.5432045391038576,0.5310023809370227,8.740000000000001e-06,2.913617453727677e-07
0.5432045391038576,0.5687568323071858,0.5559806857055216,9.24e-06,1.7939713858736287e-07
0.5687568323071858,0.5955111031100121,0.5821339677085989,9.07e-06,3.0873397394304784e-07
0.5955111031100121,0.6235238924317065,0.6095174977708593,8.439999999999999e-06,2.8949668967595156e-07
0.6235238924317065,0.6528544008714552,0.6381891466515808,8.56e-06,3.10335839588877e-07
0.6528544008714552,0.6835646138193648,0.66820950734541,8.28e-06,2.697684192043249e-07
0.6835646138193648,0.7157194324527797,0.6996420231360723,8.510000000000002e-06,3.649999999999984e-07
0.7157194324527797,0.7493868108946533,0.7325531216737164,8.580000000000001e-06,2.604963211512468e-07
0.7493868108946533,0.7846378998238388,0.7670123553592461,7.47e-06,2.4209158046766905e-07
0.7846378998238388,0.8215471968407938,0.8030925483323164,8.309999999999998e-06,2.891366458960214e-07
0.8215471968407938,0.8601927039064753,0.8408699503736345,7.06e-06,2.912902332725904e-07
0.8601927039064753,0.9006560921871456,0.8804243980468105,8.089999999999999e-06,2.831666176182043e-07
0.9006560921871456,0.9430228746534638,0.9218394834203048,7.610000000006983e-06,3.1887824217624996e-07
0.9430228746534638,0.9873825867986226,0.9652027307260431,7.489999999999999e-06,2.5919747941161604e-07
0.9873825867986226,1.0338289758574506,1.0106057813280365,7.29e-06,3.3312910410229956e-07
1.0338289758574506,1.0824601989263642,1.0581445873919075,7.4600000000000006e-06,2.4650895859312384e-07
1.0824601989263642,1.1333790304028648,1.1079196146646146,7.689999999999998e-06,2.7886675432304316e-07
1.1333790304028648,1.1866930791829704,1.1600360547929176,7.539999999999999e-06,3.315619600215536e-07
1.1866930791829704,1.2425150160755967,1.2146040476292836,7.5500000000000006e-06,3.1917863337009246e-07
1.2425150160755967,1.3009628119144887,1.2717389139950428,7.6e-06,2.2912878474779234e-07
1.3009628119144887,1.3621599868709182,1.3315613993927036,7.579999999999999e-06,2.568722120692196e-07
1.3621599868709182,1.4262358714940264,1.3941979291824724,7.620000000000001e-06,2.5662878508330376e-07
1.4262358714940264,1.493325880030483,1.4597808757622546,7.26e-06,2.852192139390322e-07
1.493325880030483,1.5635717966010745,1.5284488383157786,7.88e-06,2.784331158465164e-07
1.5635717966010745,1.6371220748390232,1.6003469357200488,7.229999999999999e-06,2.7910571473905804e-07
1.6371220748390232,1.7141321516232484,1.6756271132311358,7.249999999999999e-06,2.7424137786507524e-07
1.7141321516232484,1.7947647755696305,1.7544484635964395,7.519999999999999e-06,2.3090402046449368e-07
1.7947647755696305,1.8791903509744645,1.8369775632720475,7.709999999999999e-06,2.498666310921378e-07
1.8791903509744645,1.9675872979369864,1.9233888244557256,7.5e-06,2.1360009363293992e-07
1.9675872979369864,2.0601424294220303,2.0138648636795082,7.63e-06,2.8103973621773424e-07
2.0601424294220303,2.15705134605968,2.1085968877408554,7.389999999999999e-06,2.3676641090605298e-07
2.15705134605968,2.2585188495162605,2.20778509778797,7.64e-06,3.010675450238142e-07
2.2585188495162605,2.3647593753102636,2.3116391124132623,6.8899999999999976e-06,2.742717630380524e-07
2.3647593753102636,2.4759974459878986,2.4203784106490813,7.4799999999999995e-06,2.738308480309223e-07
2.4759974459878986,2.592468145615978,2.5342327958019384,7.45e-06,3.034523576005524e-07
2.592468145615978,2.7144176165949068,2.6534428811054425,7.550000000000001e-06,2.618046345400823e-07
2.7144176165949068,2.842103579841711,2.778260598218309,7.389999999999999e-06,2.4919871588754424e-07
2.842103579841711,2.9757958794424315,2.908949729642071,7.32e-06,2.910183270288436e-07
2.9757958794424315,3.1157770529249142,3.0457864661836727,7.069999999999999e-06,2.686850696757589e-07
3.1157770529249142,3.2623429283571834,3.1890599906410486,7.549999999999999e-06,2.9190466480228445e-07
3.2623429283571834,3.415803249533272,3.339073088945228,7.4799999999999995e-06,1.7194960502038713e-07
3.415803249533272,3.5764823305677327,3.496142790050502,7.310000000000001e-06,3.603470549345439e-07
3.5764823305677327,3.74471974128222,3.6606010359249765,7.279999999999999e-06,2.8842965635778033e-07
3.74471974128222,3.920871024832596,3.832795383057408,7.79e-06,3.104700737054478e-07
3.920871024832596,4.105308449093149,4.013089736962873,7.519999999999999e-06,2.436356569415366e-07
4.105308449093149,4.2984217933858595,4.201865121239504,7.649999999999998e-06,2.8431203515386884e-07
4.2984217933858595,4.500619172217357,4.399520482801608,7.44e-06,2.4250429549460204e-07
4.500619172217357,4.712327897764348,4.606473534990853,7.5500000000000006e-06,2.5041632002194523e-07
4.712327897764348,4.93399538293033,4.8231616403473385,7.2199999999999995e-06,2.8552583070538427e-07
4.93399538293033,5.166090086881981,5.050042734906155,6.79e-06,2.588757745843878e-07
5.166090086881981,5.409102505063519,5.28759629597275,7.349999999999999e-06,2.24536559755126e-07
5.409102505063519,5.663546205781223,5.536324355422371,7.35e-06,2.926174977679901e-07
5.663546205781223,5.9299589155488235,5.796752560665023,7.289999999999998e-06,2.5847308048099387e-07
5.9299589155488235,6.2089036554874255,6.0694312855181245,6.6e-06,2.5248762345905195e-07
6.2089036554874255,6.5009699311815945,6.35493679333451,7.000000000000001e-06,2.565800719723439e-07
6.5009699311815945,6.806774978506158,6.653872454843876,5.729999999999998e-06,1.989137166378122e-07
6.806774978506158,7.1269650680565935,6.966870023281375,1.0610000000000002e-05,3.136080356113321e-07
7.1269650680565935,7.462216870939709,7.2945909694981514,1.3720000000000002e-05,3.1034926561321464e-07
7.462216870939709,7.8132388888109885,7.637727879875349,1.526e-05,4.840110191583115e-07
7.8132388888109885,8.180772951180769,7.997005919995878,1.549e-05,4.0964415452113674e-07
8.180772951180769,8.565595783153572,8.37318436716717,1.581e-05,3.41955162752861e-07
8.565595783153572,8.96852064691375,8.76705821503366,1.5969999999999998e-05,3.8360135557633716e-07
8.96852064691375,9.39039906042647,9.17945985367011,1.558e-05,3.6706039466732676e-07
9.39039906042647,9.832122596986238,9.611260828706353,1.5949999999999995e-05,4.230346715499112e-07
9.832122596986238,10.294624769416025,10.063373683201132,1.5899999999999997e-05,3.1057741922641114e-07
10.294624769416025,10.778883002898993,10.53675388615751,1.5740000000000002e-05,3.638566567573881e-07
10.778883002898993,11.285920700611948,11.03240185175547,1.53e-05,4.425306015783915e-07
11.285920700611948,11.816809406526113,11.55136505356903,1.5340000000000002e-05,3.923433870136364e-07
11.816809406526113,12.372671069945815,12.094740238235964,1.5209999999999998e-05,3.18747549010188e-07
12.372671069945815,12.954680416570856,12.663675743258334,1.5689999999999997e-05,4.154014122909752e-07
12.954680416570856,13.56406743109347,13.259373923832163,1.6750000000000004e-05,5.006246098625134e-07
13.56406743109347,14.202119956576416,13.883093693834944,1.566e-05,3.6936883102575793e-07
14.202119956576416,14.87018641610557,14.536153186340993,1.608e-05,5.045047076093547e-07
14.87018641610557,15.569678662468833,15.219932539287202,1.5659999999999996e-05,3.5351803348627406e-07
15.569678662468833,16.30207496188367,15.93587681217625,1.67e-05,3.596873642484576e-07
16.30207496188367,17.068923118078924,16.685499039981295,1.5459999999999998e-05,3.484130690239254e-07
17.068923118078924,17.871843743333184,17.470383430706054,1.5279999999999996e-05,3.4830542152925884e-07
17.871843743333184,18.71253368338246,18.292188713357824,1.5980000000000003e-05,3.6994368940871016e-07
18.71253368338246,19.592769603435265,19.152651643408863,1.568e-05,3.9621122312894543e-07
