U-235(n,f) ENDFB-8.0
Energy(eV) XS(b)
           1e-05      30922.8 
     1.10304e-05      29443 
     1.21669e-05      28034 
     1.34206e-05      26692.4 
     1.48034e-05      25415.1 
     1.63287e-05      24198.8 
     1.80111e-05      23040.7 
     1.98669e-05      21938.1 
     2.19139e-05      20888.2 
     2.41719e-05      19888.5 
     2.66625e-05      18936.7 
     2.94097e-05      18030.4 
       3.244e-05      17167.4 
     3.57825e-05      16345.7 
     3.94694e-05      15563.4 
     4.35362e-05      14818.5 
     4.80221e-05      14109.2 
     5.29701e-05      13433.8 
      5.8428e-05      12790.8 
     6.44483e-05      12178.5 
     7.10888e-05      11595.4 
     7.84136e-05      11040.3 
     8.64931e-05      10511.7 
     9.54051e-05      10008.4 
     0.000105235      9529.22 
     0.000116078      9072.9 
     0.000128039      8638.41 
     0.000141231      8224.68 
     0.000155784      7830.74 
     0.000171835      7455.63 
      0.00018954      7098.45 
      0.00020907      6758.33 
     0.000230612      6434.48 
     0.000254374      6126.09 
     0.000280584      5832.44 
     0.000309494      5552.82 
     0.000341383      5286.55 
     0.000376558      5032.99 
     0.000415358      4791.54 
     0.000458155      4561.61 
     0.000505362      4342.66 
     0.000557433      4134.15 
     0.000614869      3935.58 
     0.000678223      3746.48 
     0.000748105      3566.4 
     0.000825188      3394.89 
     0.000910213      3231.56 
        0.001004      3076 
      0.00110745      2927.85 
      0.00122155      2786.74 
      0.00134742      2652.35 
      0.00148625      2524.34 
      0.00163939      2402.42 
      0.00180831      2286.28 
      0.00199463      2175.67 
      0.00220016      2070.3 
      0.00242685      1969.94 
      0.00267691      1874.35 
      0.00295273      1783.31 
      0.00325697      1696.61 
      0.00359256      1614.04 
      0.00396272      1535.42 
      0.00437103      1460.53 
      0.00482141      1389.19 
      0.00531819      1321.2 
      0.00586616      1256.4 
      0.00647059      1194.67 
       0.0071373      1135.89 
      0.00787271      1079.92 
      0.00868389      1026.65 
      0.00957865      975.963 
       0.0105656      927.74 
       0.0116543      881.85 
       0.0128551      838.144 
       0.0141796      796.487 
       0.0156406      756.773 
       0.0172522      718.903 
       0.0190298      682.769 
       0.0209906      648.26 
       0.0231534      615.276 
       0.0252419      587.418 
          0.0253      586.691 
       0.0279068      556.334 
       0.0307823      527.201 
        0.033954      499.242 
       0.0374525      472.446 
       0.0413115      446.733 
       0.0455681      421.99 
       0.0499137      399.893 
        0.054671      378.66 
       0.0598846      358.256 
       0.0655923      338.696 
       0.0718474      319.955 
       0.0786952      302.058 
       0.0855961      286.281 
       0.0931022      271.239 
        0.101266      256.957 
        0.110147      243.473 
        0.118972      231.86 
        0.128499      221.037 
        0.138795      211.086 
        0.148866      202.918 
        0.159667      195.734 
        0.170053      190.282 
        0.179855      186.411 
        0.190221      183.656 
        0.199786      182.342 
        0.205883      182.119 
        0.216235      182.817 
        0.227097      184.895 
         0.24188      189.388 
        0.259431      195.192 
        0.269701      197.36 
          0.2767      197.784 
        0.284562      196.974 
        0.292648      194.608 
        0.300964      190.61 
        0.309516      185.091 
        0.320556      176.473 
        0.351109      150.228 
        0.363633      140.359 
        0.376585      131.191 
        0.387286      124.433 
        0.398291      118.205 
        0.409608      112.492 
        0.421247      107.26 
        0.436273      101.331 
        0.451813      96.0186 
        0.467929      91.2298 
        0.484596      86.9096 
        0.501882      82.9868 
        0.519759      79.4228 
        0.542069      75.5524 
        0.565337      72.076 
        0.589604      68.951 
        0.614912      66.1469 
        0.641307      63.641 
        0.668835      61.425 
        0.697544      59.4992 
        0.727486      57.8702 
        0.758713      56.5731 
        0.785776      55.7818 
        0.813765      55.3045 
        0.836561      55.1968 
        0.860332      55.3878 
        0.884779      55.9605 
        0.903591      56.7096 
        0.922758      57.8046 
        0.942377      59.3449 
        0.955672      60.6788 
        0.969155      62.3161 
        0.982828      64.319 
        0.996694      66.7637 
         1.01076      69.7419 
         1.02143      72.3866 
          1.0322      75.4316 
         1.04312      78.9335 
         1.05414      82.9017 
         1.06901      88.8857 
         1.09513      100.099 
         1.10545      103.97 
         1.11325      106.26 
          1.1191      107.458 
         1.12593      108.147 
         1.12837      108.181 
         1.13488      107.671 
         1.14086      106.385 
           1.146      104.639 
         1.15111      102.323 
         1.15618      99.4887 
         1.16295      94.9732 
          1.1691      90.2672 
         1.17525      85.1481 
         1.19599      66.9211 
         1.20443      59.9031 
         1.21076      55.006 
         1.21715      50.4382 
         1.22356      46.2531 
         1.22784      43.691 
         1.23215      41.293 
         1.23649      39.0588 
         1.24083      37.0004 
         1.24516      35.1122 
         1.24933      33.4552 
         1.25331      32.006 
          1.2573      30.6879 
         1.26128      29.498 
         1.26672      28.0767 
         1.27189      26.9372 
         1.27706      25.9968 
         1.28171      25.3121 
         1.28636      24.7686 
         1.29118      24.3368 
         1.29704      23.9598 
         1.30655      23.5681 
         1.32047      23.0963 
         1.33081      22.6003 
         1.34115      21.9485 
         1.36526      20.2349 
         1.37905      19.3685 
         1.39283      18.6414 
         1.40661      18.0408 
         1.42039      17.5432 
         1.44107      16.9435 
          1.4614      16.4786 
         1.48202      16.0961 
         1.51353      15.6294 
         1.54563      15.251 
         1.58955      14.8311 
         1.64625      14.3901 
         1.71692      13.9406 
         1.77807      13.6276 
          1.8286      13.4431 
         1.86612      13.389 
         1.88981      13.4281 
         1.90943      13.5431 
         1.92245      13.691 
          1.9339      13.8987 
         1.94281      14.1371 
         1.95044      14.42 
         1.95808      14.805 
         1.96316      15.1374 
         1.96825      15.5467 
         1.97334      16.0491 
         1.97843      16.6609 
         1.98352      17.397 
         1.98861      18.2676 
          1.9937      19.2735 
         1.99879      20.4022 
         2.00897      22.8885 
          2.0166      24.7135 
          2.0208      25.5918 
         2.02411      26.18 
         2.02831      26.7582 
          2.0319      27.078 
         2.03554      27.2213 
         2.03661      27.2274 
         2.04043      27.115 
         2.04409      26.8158 
         2.04663      26.5042 
          2.0507      25.8485 
         2.05478      25.0315 
         2.05987      23.8477 
         2.07259      20.6187 
         2.07768      19.3998 
         2.08277      18.29 
         2.08786      17.3089 
         2.09295      16.4616 
         2.09804      15.7421 
         2.10313      15.1381 
         2.10822      14.6342 
         2.11331      14.2143 
          2.1184      13.8638 
         2.12603      13.44 
         2.13366      13.1083 
         2.14435      12.7516 
          2.1525      12.5386 
         2.16768      12.2302 
         2.18286      11.9967 
         2.20596      11.7254 
         2.22927      11.5114 
         2.27656      11.1698 
         2.39103      10.5042 
         2.45635      10.1095 
         2.50404      9.76756 
         2.53582      9.49275 
         2.56761      9.16037 
         2.59145      8.85992 
         2.61529      8.50546 
         2.63119      8.23777 
         2.67092      7.52143 
         2.68284      7.34519 
         2.69079      7.26184 
         2.69913      7.21972 
         2.70132      7.21844 
         2.70787      7.24409 
         2.71403      7.31486 
          2.7194      7.41935 
         2.72476      7.56855 
         2.73052      7.78299 
         2.73648      8.06744 
         2.74244      8.41724 
           2.749      8.87648 
         2.75496      9.3576 
         2.76152      9.9486 
         2.76867      10.6527 
         2.78377      12.2514 
         2.79549      13.4894 
         2.80681      14.5951 
         2.81436      15.2573 
         2.82191      15.8509 
         2.82986      16.4007 
         2.83781      16.8777 
         2.84973      17.4756 
         2.86125      17.9497 
          2.8839      18.7149 
          2.9141      19.6955 
         2.92916      20.2692 
         2.94422      20.947 
         2.95924      21.7617 
          2.9705      22.4869 
         2.98218      23.3652 
         2.99407      24.4172 
         3.00596      25.6602 
         3.01388      26.6133 
         3.02181      27.6802 
         3.02973      28.8738 
         3.03766      30.2073 
         3.04558      31.6929 
         3.05351      33.3402 
         3.06143      35.1544 
         3.06936      37.1327 
         3.08006      40.0362 
         3.10581      47.5049 
         3.11374      49.6268 
         3.12166      51.4744 
         3.12761      52.6064 
         3.13252      53.3389 
         3.13704      53.8274 
         3.14282      54.1692 
         3.14572      54.2136 
         3.15178      54.0239 
         3.15812      53.4146 
         3.16327      52.6201 
         3.16921      51.3944 
         3.17516      49.8754 
          3.1811      48.1123 
         3.18903      45.4789 
          3.2128      36.9131 
         3.22073      34.2095 
         3.22865      31.7078 
          3.2346      29.987 
         3.24054      28.4082 
         3.24648      26.9733 
         3.25243      25.6798 
         3.25837      24.522 
         3.26432      23.4925 
         3.27026      22.5824 
          3.2762      21.7823 
         3.28413      20.8706 
         3.29205      20.117 
         3.29998      19.5024 
          3.3079      19.01 
         3.31583      18.6253 
         3.32375      18.3365 
         3.33168      18.1336 
         3.34198      17.9855 
         3.34832      17.9542 
         3.36021      18.0097 
          3.3721      18.2071 
         3.38398      18.5438 
         3.39587      19.0235 
         3.40776      19.6563 
         3.41838      20.3648 
         3.42836      21.1709 
         3.43835      22.1334 
         3.44555      22.94 
         3.45276      23.8547 
         3.45996      24.893 
         3.46717      26.0735 
         3.47437      27.419 
         3.48158      28.9567 
         3.48878      30.7191 
         3.49599      32.7444 
         3.50079      34.2623 
         3.50559      35.931 
          3.5104      37.7659 
          3.5152      39.7826 
            3.52      41.9966 
         3.52481      44.4225 
         3.52961      47.0726 
         3.53441      49.9554 
         3.53922      53.0741 
         3.54402      56.4243 
         3.55122      61.8494 
         3.56083      69.655 
         3.57284      79.6603 
         3.58052      85.6172 
         3.58629      89.5294 
         3.59061      92.0142 
         3.59541      94.2126 
         3.60022      95.7224 
         3.60382      96.3532 
         3.60742      96.5256 
         3.61127      96.1866 
         3.61559      95.1531 
         3.61991      93.4406 
         3.62351      91.5179 
         3.62712      89.1758 
         3.63132      85.9646 
         3.63672      81.192 
         3.64213      75.8597 
          3.6498      67.6985 
         3.66157      54.9023 
         3.66754      48.7163 
         3.67152      44.8085 
          3.6755      41.1085 
         3.67968      37.4704 
         3.68386      34.0966 
         3.68699      31.7427 
         3.69012      29.5397 
         3.69361      27.2654 
         3.69639      25.5738 
         3.69918      23.9916 
         3.70196      22.5145 
         3.70475      21.1375 
         3.70753      19.8555 
         3.71032      18.6632 
          3.7131      17.5552 
         3.71606      16.467 
         3.71873      15.5528 
         3.72216      14.4733 
         3.72558      13.4886 
         3.72926      12.5278 
         3.73204      11.8602 
         3.73622      10.947 
         3.73901      10.3919 
         3.74263      9.72814 
         3.74625      9.12406 
         3.74987      8.57379 
         3.75349      8.07215 
         3.75767      7.5477 
         3.76185      7.07549 
         3.76602      6.64996 
          3.7702      6.26619 
         3.77438      5.91986 
         3.77856      5.60713 
         3.78274      5.3246 
         3.78691      5.06921 
         3.79109      4.83826 
         3.79527      4.62931 
         3.80084      4.38119 
         3.80641      4.16375 
         3.81198      3.97302 
         3.81755      3.80556 
         3.82312      3.65839 
         3.82869      3.52893 
         3.83426      3.41494 
         3.84262      3.2688 
         3.85098      3.14773 
         3.85933      3.04733 
         3.86769      2.96406 
         3.87604      2.89505 
         3.88719      2.82125 
         3.89833      2.76429 
         3.90947      2.72078 
         3.92618      2.67505 
         3.94011      2.65067 
         3.95682      2.63363 
          3.9811      2.62587 
         4.01614      2.63715 
         4.05858      2.66987 
         4.17391      2.79092 
         4.32258      2.95662 
         4.38356      3.03313 
         4.44541      3.12617 
         4.49245      3.21578 
         4.52403      3.29062 
         4.55583      3.38371 
         4.57979      3.47042 
         4.60398      3.57837 
          4.6201      3.66584 
         4.63623      3.77001 
         4.64917      3.86941 
         4.66212      3.98725 
         4.67507      4.12943 
         4.68478      4.2572 
         4.69363      4.39445 
         4.70206      4.54882 
         4.71049      4.73337 
         4.71611      4.87784 
         4.72173      5.04383 
         4.72736      5.23617 
         4.73297      5.46091 
         4.73815      5.70266 
         4.74332      5.98511 
         4.74719      6.22853 
         4.75107      6.5033 
         4.75512      6.82801 
          4.7595      7.22938 
         4.76389      7.6888 
          4.7676      8.12777 
         4.77097      8.57013 
         4.77434      9.05627 
         4.77771      9.58816 
         4.78109      10.1671 
         4.78558      11.013 
         4.79008      11.9414 
         4.79458      12.9465 
         4.79907      14.0178 
         4.80806      16.2915 
         4.81706      18.5772 
         4.82155      19.6481 
         4.82605      20.6254 
         4.83055      21.4748 
         4.83504      22.1643 
         4.83853      22.5709 
         4.84224      22.8683 
         4.84561      23.01 
         4.84781      23.0342 
         4.85134      22.9591 
         4.85483      22.7486 
          4.8582      22.4198 
         4.86157      21.9747 
         4.86494      21.4224 
         4.86832      20.7743 
         4.87281      19.7838 
         4.87731      18.6803 
         4.88405      16.8918 
         4.89495      13.9317 
         4.89975      12.6911 
          4.9049      11.4471 
         4.90845      10.6529 
           4.912      9.91557 
         4.91555      9.23757 
         4.91856      8.70863 
         4.92158      8.2229 
          4.9246      7.77945 
         4.92761      7.37681 
         4.93063      7.0131 
         4.93364      6.68615 
         4.93666      6.39356 
         4.93968      6.13284 
         4.94322      5.86345 
         4.94677      5.63054 
         4.95032      5.43014 
         4.95387      5.2585 
         4.95742      5.11216 
         4.96097      4.98796 
         4.96629      4.83705 
          4.9709      4.735 
         4.97658      4.63916 
         4.98226      4.56986 
         4.98793      4.5218 
         4.99432      4.48803 
         5.00142      4.47059 
         5.00497      4.46843 
         5.01561      4.48314 
         5.02626      4.52356 
         5.04045      4.60858 
         5.05606      4.73547 
         5.07309      4.908 
         5.09013      5.11319 
         5.10716      5.35016 
          5.1247      5.62782 
         5.14274      5.95059 
         5.16078      6.31315 
         5.17883      6.71801 
           5.197      7.17112 
         5.21529      7.67602 
         5.23359      8.23186 
         5.25189      8.84004 
         5.27296      9.60525 
         5.28487      10.0683 
         5.30871      11.0564 
            5.33      12.0035 
         5.35838      13.3524 
         5.38705      14.8048 
         5.41799      16.3725 
         5.43219      16.9907 
         5.44493      17.4231 
         5.45622      17.6791 
         5.46806      17.8088 
         5.47334      17.8235 
          5.4871      17.7607 
          5.5152      17.4078 
         5.54387      17.0787 
         5.59751      16.6082 
           5.638      16.1567 
         5.69278      15.5106 
         5.72017      15.242 
         5.74755      15.0425 
         5.77083      14.9421 
         5.79411      14.9174 
         5.82013      14.9939 
         5.83964      15.1341 
         5.85984      15.3653 
         5.88038      15.7031 
         5.90092      16.1614 
         5.91461      16.5442 
         5.92831      16.9974 
           5.942      17.5301 
         5.95569      18.1527 
         5.96939      18.8772 
         5.98308      19.7176 
         5.99678      20.6895 
         6.01047      21.8106 
         6.02416      23.0995 
         6.03443      24.1877 
          6.0447      25.3886 
         6.05497      26.7088 
         6.06524      28.1531 
          6.0762      29.8324 
         6.08715      31.6519 
         6.10359      34.6192 
         6.12276      38.3455 
         6.15014      43.7282 
         6.16384      46.192 
         6.17178      47.4823 
         6.18424      49.2395 
          6.1967      50.6203 
         6.20834      51.5547 
         6.21998      52.1782 
         6.25079      53.1877 
         6.26106      53.8266 
         6.26876      54.6438 
          6.2739      55.423 
         6.27904      56.4417 
         6.28503      57.9976 
         6.29016      59.704 
          6.2953      61.8081 
         6.30043      64.3584 
         6.30557      67.3976 
         6.31062      70.895 
         6.31549      74.7705 
         6.32037      79.135 
         6.32525      83.9704 
         6.33176      91.076 
         6.33843      98.9861 
         6.35484      119.181 
         6.36097      126.093 
         6.36598      131.077 
         6.37098      135.26 
         6.37549      138.193 
         6.37999      140.221 
         6.38375      141.157 
         6.38688      141.385 
         6.39086      140.929 
         6.39449      139.78 
         6.39902      137.38 
         6.40315      134.298 
         6.40803      129.639 
         6.41254      124.472 
         6.41704      118.603 
         6.42205      111.431 
         6.42956      99.8265 
         6.44182      80.2949 
         6.44815      70.6299 
         6.45327      63.2769 
         6.45798      56.9581 
         6.46152      52.535 
         6.46505      48.3972 
         6.46859      44.5506 
         6.47162      41.4858 
         6.47465      38.6325 
         6.47768      35.9861 
