U-238(n,f) ENDFB-8.0
Energy(eV) XS(b)
           1e-05      0.000928993 
     1.10304e-05      0.00088454 
     1.21669e-05      0.000842214 
     1.34206e-05      0.000801913 
     1.48034e-05      0.000763541 
     1.63287e-05      0.000727005 
     1.80111e-05      0.000692218 
     1.98669e-05      0.000659094 
     2.19139e-05      0.000627556 
     2.41719e-05      0.000597527 
     2.66625e-05      0.000568935 
     2.94097e-05      0.000541711 
       3.244e-05      0.00051579 
     3.57825e-05      0.000491109 
     3.94694e-05      0.000467609 
     4.35362e-05      0.000445234 
     4.80221e-05      0.000423929 
     5.29701e-05      0.000403644 
      5.8428e-05      0.00038433 
     6.44483e-05      0.000365939 
     7.10888e-05      0.000348429 
     7.84136e-05      0.000331757 
     8.64931e-05      0.000315882 
     9.54051e-05      0.000300767 
     0.000105235      0.000286375 
     0.000116078      0.000272672 
     0.000128039      0.000259625 
     0.000141231      0.000247202 
     0.000155784      0.000235373 
     0.000171835      0.000224111 
      0.00018954      0.000213387 
      0.00020907      0.000203177 
     0.000230612      0.000193455 
     0.000254374      0.000184198 
     0.000280584      0.000175385 
     0.000309494      0.000166993 
     0.000341383      0.000159002 
     0.000376558      0.000151395 
     0.000415358      0.000144151 
     0.000458155      0.000137253 
     0.000505362      0.000130686 
     0.000557433      0.000124433 
     0.000614869      0.00011848 
     0.000678223      0.000112811 
     0.000748105      0.000107413 
     0.000825188      0.000102274 
     0.000910213      9.7381e-5 
        0.001004      9.2722e-5 
      0.00110745      8.82859e-5 
      0.00122155      8.40622e-5 
      0.00134742      8.00406e-5 
      0.00148625      7.62115e-5 
      0.00163939      7.25656e-5 
      0.00180831      6.90943e-5 
      0.00199463      6.57892e-5 
      0.00220016      6.26423e-5 
      0.00242685      5.96462e-5 
      0.00267691      5.67937e-5 
      0.00295273      5.40782e-5 
      0.00325697      5.14933e-5 
      0.00359256      4.90326e-5 
      0.00396272      4.66902e-5 
      0.00437103      4.446e-5 
      0.00482141      4.2336e-5 
      0.00531819      4.03128e-5 
      0.00586616      3.83857e-5 
      0.00647059      3.65509e-5 
       0.0071373      3.48048e-5 
      0.00787271      3.31428e-5 
      0.00868389      3.15602e-5 
      0.00957865      3.00522e-5 
       0.0105656      2.86155e-5 
       0.0116543      2.72473e-5 
       0.0128551      2.59452e-5 
       0.0141796      2.47069e-5 
       0.0156406      2.35293e-5 
       0.0172522      2.24081e-5 
       0.0190298      2.13389e-5 
       0.0209906      2.03202e-5 
       0.0231534      1.93512e-5 
       0.0252419      1.85379e-5 
          0.0253      1.85168e-5 
       0.0279068      1.76357e-5 
       0.0307823      1.67951e-5 
        0.033954      1.59945e-5 
       0.0374525      1.52327e-5 
       0.0413115      1.45078e-5 
       0.0455681      1.38181e-5 
       0.0502633      1.31637e-5 
       0.0558334      1.24979e-5 
       0.0615863      1.1905e-5 
       0.0679319      1.13405e-5 
       0.0749314      1.08036e-5 
       0.0826521      1.02929e-5 
       0.0911684      9.80725e-6 
        0.100562      9.34818e-6 
        0.111701      8.87848e-6 
         0.12321      8.46117e-6 
        0.135905      8.06443e-6 
        0.149908      7.68727e-6 
        0.165354      7.32877e-6 
        0.182392      6.98818e-6 
        0.201185      6.66769e-6 
        0.221915      6.35931e-6 
         0.24478      6.06639e-6 
        0.270002      5.7882e-6 
        0.299923      5.50586e-6 
        0.330826      5.25637e-6 
        0.364913      5.021e-6 
        0.402512      4.7966e-6 
        0.443986      4.5837e-6 
        0.489733      4.38175e-6 
        0.543978      4.17792e-6 
        0.600027      3.99809e-6 
        0.666521      3.81634e-6 
        0.735197      3.65729e-6 
        0.828152      3.47576e-6 
        0.913482      3.33598e-6 
         1.02903      3.17857e-6 
         1.14301      3.04999e-6 
         1.25201      2.94584e-6 
         1.38101      2.8412e-6 
         1.53398      2.73925e-6 
         1.69203      2.65309e-6 
         1.87954      2.56978e-6 
         2.08772      2.49776e-6 
         2.31908      2.43784e-6 
         2.55803      2.39465e-6 
         2.80184      2.36667e-6 
         3.06904      2.35439e-6 
         3.10775      2.35411e-6 
         3.35172      2.36146e-6 
         3.59492      2.38507e-6 
         3.82895      2.42505e-6 
         4.02127      2.47278e-6 
         4.22347      2.54053e-6 
         4.40687      2.62134e-6 
         4.56546      2.71e-6 
         4.69518      2.7988e-6 
          4.8286      2.90936e-6 
         4.93102      3.01059e-6 
         5.03587      3.13254e-6 
         5.14269      3.28049e-6 
         5.21524      3.39781e-6 
         5.28882      3.53377e-6 
         5.36343      3.69268e-6 
          5.4391      3.88029e-6 
         5.49665      4.04469e-6 
         5.55475      4.23383e-6 
         5.61339      4.45304e-6 
         5.67257      4.70953e-6 
         5.71259      4.90715e-6 
          5.7526      5.12803e-6 
         5.79318      5.3799e-6 
         5.83376      5.66501e-6 
         5.87491      5.99473e-6 
         5.90578      6.27387e-6 
         5.93693      6.58831e-6 
         5.96823      6.9428e-6 
         5.99953      7.3427e-6 
         6.03127      7.80351e-6 
         6.05243      8.14736e-6 
         6.07359      8.52536e-6 
          6.0949      8.94548e-6 
         6.11636      9.4145e-6 
         6.13782      9.93687e-6 
         6.15928      1.05214e-5 
         6.18089      1.11839e-5 
         6.19721      1.17414e-5 
         6.21353      1.2356e-5 
         6.22985      1.30361e-5 
         6.24618      1.37918e-5 
         6.26257      1.46395e-5 
         6.27913      1.56003e-5 
         6.29568      1.66856e-5 
         6.30671      1.74898e-5 
         6.31775      1.8368e-5 
         6.32878      1.93302e-5 
         6.33982      2.0388e-5 
         6.34925      2.1379e-5 
         6.36101      2.27413e-5 
         6.37277      2.42674e-5 
         6.38453      2.59862e-5 
         6.39237      2.72563e-5 
          6.4002      2.86404e-5 
         6.40804      3.01533e-5 
         6.41561      3.17513e-5 
         6.42317      3.35039e-5 
         6.43073      3.54328e-5 
          6.4383      3.75642e-5 
         6.44586      3.99296e-5 
         6.45343      4.25673e-5 
         6.46099      4.55247e-5 
         6.46666      4.79876e-5 
         6.47196      5.05051e-5 
         6.47706      5.31615e-5 
         6.48217      5.60749e-5 
         6.48727      5.92847e-5 
         6.49238      6.28385e-5 
         6.49729      6.66414e-5 
         6.50183      7.05409e-5 
         6.50637      7.48803e-5 
         6.51106      7.99121e-5 
         6.51552      8.53179e-5 
         6.51938      9.05695e-5 
          6.5224      9.51286e-5 
         6.52543      0.000100134 
         6.52846      0.00010565 
         6.53148      0.00011175 
         6.53451      0.000118521 
         6.53753      0.000126062 
         6.54025      0.000133602 
         6.54298      0.000141955 
         6.54555      0.000150685 
         6.54782      0.000159149 
         6.55009      0.000168408 
         6.55236      0.000178544 
         6.55463      0.000189649 
         6.55689      0.000201822 
         6.55916      0.00021517 
         6.56143      0.000229808 
          6.5637      0.000245857 
         6.56597      0.000263448 
         6.56824      0.000282719 
         6.57051      0.000303813 
         6.57278      0.000326881 
         6.57505      0.000352078 
         6.57732      0.000379561 
         6.57958      0.000409492 
         6.58185      0.000442032 
         6.58412      0.000477342 
         6.58639      0.000515577 
         6.58866      0.000556886 
         6.59093      0.00060141 
          6.5932      0.000649277 
         6.59547      0.0007006 
         6.59774      0.000755472 
         6.60001      0.000813965 
         6.60303      0.000897662 
          6.6053      0.000964726 
         6.60833      0.00105982 
         6.61135      0.00116121 
         6.61438      0.00126862 
         6.61846      0.00142233 
         6.62376      0.00163409 
         6.63192      0.00197798 
         6.64039      0.00233434 
         6.64524      0.00252594 
         6.65008      0.00270089 
         6.65371      0.00281741 
         6.65734      0.0029186 
         6.66097      0.00300226 
          6.6646      0.00306652 
         6.66768      0.00310477 
         6.67113      0.00312888 
         6.67355      0.00313378 
         6.67694      0.00312387 
         6.67936      0.0031049 
         6.68299      0.00305836 
         6.68662      0.00299109 
         6.69025      0.00290459 
         6.69388      0.00280078 
         6.69751      0.0026819 
         6.70236      0.00250421 
          6.7072      0.00231035 
         6.72353      0.00161808 
         6.72807      0.00143462 
         6.73225      0.00127478 
         6.73551      0.00115685 
         6.73878      0.00104587 
         6.74205      0.000942253 
         6.74523      0.000848786 
         6.74734      0.000790499 
         6.74946      0.00073542 
         6.75158      0.000683514 
          6.7537      0.000634727 
         6.75581      0.000588987 
         6.75793      0.000546207 
          6.7602      0.000503544 
         6.76262      0.000461504 
         6.76504      0.000422869 
         6.76746      0.000387455 
         6.76988      0.000355067 
          6.7717      0.000332646 
         6.77351      0.000311735 
         6.77533      0.000292254 
         6.77714      0.00027412 
         6.77911      0.000255906 
         6.78138      0.000236613 
         6.78365      0.000219029 
         6.78592      0.000203014 
         6.78819      0.000188438 
         6.79046      0.000175177 
         6.79272      0.000163114 
         6.79499      0.000152141 
         6.79726      0.000142158 
         6.79953      0.000133071 
          6.8018      0.000124794 
         6.80437      0.000116295 
          6.8071      0.000108206 
         6.80982      0.000100945 
         6.81254      9.4414e-5 
         6.81526      8.85258e-5 
         6.81799      8.32042e-5 
         6.82071      7.83817e-5 
         6.82343      7.39995e-5 
         6.82616      7.00059e-5 
         6.82797      6.75368e-5 
          6.8316      6.30099e-5 
         6.83501      5.92034e-5 
         6.83841      5.57618e-5 
         6.84181      5.26367e-5 
         6.84522      4.97875e-5 
         6.84862      4.71798e-5 
         6.85202      4.47848e-5 
         6.85656      4.188e-5 
          6.8611      3.92612e-5 
         6.86564      3.68889e-5 
         6.87055      3.45596e-5 
         6.87585      3.22934e-5 
         6.88114      3.02448e-5 
         6.88644      2.83853e-5 
         6.89173      2.66914e-5 
         6.89703      2.51432e-5 
         6.90232      2.3724e-5 
         6.90761      2.24195e-5 
         6.91329      2.11352e-5 
         6.91934      1.98804e-5 
         6.92539      1.87312e-5 
         6.93144      1.76759e-5 
         6.93749      1.67047e-5 
         6.94354      1.58088e-5 
         6.94959      1.49807e-5 
         6.95867      1.38513e-5 
         6.96623      1.30015e-5 
          6.9738      1.22248e-5 
         6.98136      1.15131e-5 
         6.98892      1.08595e-5 
         6.99649      1.02579e-5 
         7.00405      9.70316e-6 
         7.01161      9.19058e-6 
         7.01918      8.71611e-6 
          7.0275      8.23395e-6 
         7.03582      7.78937e-6 
         7.04414      7.37868e-6 
         7.05246      6.99861e-6 
         7.06494      6.47972e-6 
         7.07742      6.01496e-6 
         7.08574      5.73166e-6 
         7.09633      5.39852e-6 
         7.10691      5.09308e-6 
          7.1175      4.81248e-6 
         7.12809      4.55423e-6 
         7.13868      4.31615e-6 
         7.14927      4.0963e-6 
         7.16515      3.79702e-6 
         7.17677      3.59878e-6 
         7.18942      3.40062e-6 
         7.20206      3.21899e-6 
         7.21471      3.05221e-6 
         7.22735      2.89881e-6 
            7.24      2.75751e-6 
         7.25896      2.56575e-6 
         7.27802      2.39454e-6 
         7.29726      2.24064e-6 
         7.31649      2.10329e-6 
         7.33573      1.98041e-6 
         7.35496      1.8702e-6 
          7.3742      1.77115e-6 
         7.39371      1.68076e-6 
         7.41321      1.59933e-6 
         7.43272      1.52584e-6 
         7.45223      1.45941e-6 
         7.47824      1.38052e-6 
         7.50319      1.3139e-6 
         7.52815      1.255e-6 
         7.55604      1.19714e-6 
         7.58979      1.13675e-6 
         7.62196      1.08755e-6 
         7.65774      1.04094e-6 
         7.69644      9.98581e-7 
         7.73041      9.67222e-7 
         7.77429      9.3347e-7 
         7.81141      9.09916e-7 
         7.85529      8.8701e-7 
          7.9107      8.64376e-7 
         7.96611      8.4743e-7 
         8.02231      8.34898e-7 
         8.10699      8.22869e-7 
         8.19247      8.16998e-7 
         8.26029      8.15681e-7 
         8.37683      8.1841e-7 
         8.49501      8.25685e-7 
         8.67563      8.4219e-7 
         8.98465      8.7786e-7 
         10.2848      1.04029e-6 
         11.5725      1.19787e-6 
         12.2535      1.28849e-6 
         12.7531      1.36209e-6 
         13.2074      1.43659e-6 
         13.6785      1.52379e-6 
         14.0671      1.60559e-6 
         14.3655      1.67594e-6 
          14.671      1.75617e-6 
         14.9822      1.84819e-6 
         15.3007      1.95547e-6 
         15.5166      2.03722e-6 
         15.7355      2.12893e-6 
         15.9575      2.23264e-6 
         16.1826      2.35069e-6 
         16.4109      2.48617e-6 
         16.5842      2.60162e-6 
          16.759      2.73114e-6 
         16.9364      2.87725e-6 
         17.1154      3.04398e-6 
          17.296      3.2352e-6 
         17.4176      3.37902e-6 
           17.54      3.53818e-6 
         17.6633      3.71511e-6 
         17.7875      3.91278e-6 
         17.9125      4.13477e-6 
         18.0385      4.38519e-6 
         18.1653      4.66982e-6 
         18.2827      4.96819e-6 
         18.3908      5.27777e-6 
          18.473      5.53918e-6 
         18.5574      5.83458e-6 
         18.6417      6.16135e-6 
         18.7261      6.52431e-6 
         18.8105      6.92928e-6 
         18.8949      7.3833e-6 
         18.9793      7.895e-6 
         19.0355      8.27331e-6 
         19.0918      8.68568e-6 
         19.1536      9.18379e-6 
         19.2211      9.78837e-6 
          19.283      1.04077e-5 
         19.3393      1.10334e-5 
         19.3899      1.16552e-5 
         19.4326      1.22296e-5 
         19.4889      1.30641e-5 
         19.5433      1.39702e-5 
         19.5879      1.47952e-5 
         19.6374      1.58144e-5 
         19.6796      1.67812e-5 
          19.719      1.77775e-5 
         19.7527      1.87138e-5 
         19.7949      2.00063e-5 
         19.8371      2.14559e-5 
         19.8751      2.29172e-5 
         19.9109      2.44559e-5 
         19.9468      2.6173e-5 
         19.9826      2.8098e-5 
         20.0066      2.95141e-5 
         20.0305      3.1051e-5 
         20.0579      3.29795e-5 
          20.081      3.47676e-5 
         20.1042      3.67193e-5 
         20.1273      3.8856e-5 
         20.1505      4.12025e-5 
         20.1659      4.28976e-5 
         20.1906      4.58454e-5 
         20.2152      4.91356e-5 
         20.2337      5.18618e-5 
         20.2552      5.53642e-5 
         20.2757      5.90687e-5 
         20.2932      6.25421e-5 
         20.3096      6.61218e-5 
          20.326      7.00428e-5 
         20.3414      7.40699e-5 
         20.3568      7.84823e-5 
         20.3742      8.40158e-5 
         20.3873      8.85899e-5 
         20.4019      9.41944e-5 
         20.4173      0.000100736 
         20.4327      0.000108041 
         20.4481      0.000116241 
         20.4583      0.000122281 
         20.4686      0.000128846 
         20.4788      0.000136003 
         20.4891      0.000143831 
         20.4994      0.000152422 
         20.5096      0.00016189 
         20.5199      0.000172371 
         20.5301      0.000184033 
         20.5404      0.000197088 
         20.5481      0.000207953 
         20.5558      0.000219893 
         20.5635      0.000233085 
         20.5712      0.000247744 
         20.5789      0.000264141 
         20.5866      0.000282619 
         20.5917      0.000296303 
         20.5968      0.000311257 
          20.602      0.000327665 
         20.6071      0.000345741 
         20.6122      0.000365737 
         20.6173      0.000387946 
         20.6225      0.000412716 
         20.6276      0.000440444 
         20.6315      0.000463462 
         20.6353      0.000488627 
         20.6379      0.000506719 
         20.6425      0.000542231 
         20.6459      0.00057161 
         20.6494      0.000603607 
         20.6529      0.000638487 
         20.6563      0.000676532 
         20.6598      0.000718057 
         20.6633      0.000763392 
         20.6667      0.000812898 
         20.6702      0.000866959 
         20.6736      0.000925989 
         20.6768      0.000985458 
         20.6799      0.00104725 
          20.683      0.00111399 
         20.6861      0.00118605 
         20.6892      0.00126378 
         20.6922      0.00134757 
         20.6953      0.00143783 
         20.6984      0.00153495 
         20.7015      0.00163935 
         20.7045      0.00175145 
         20.7076      0.00187168 
         20.7107      0.00200047 
         20.7138      0.00213822 
         20.7179      0.00233658 
          20.722      0.00255258 
         20.7261      0.00278714 
         20.7302      0.00304109 
         20.7343      0.00331517 
         20.7384      0.00361002 
         20.7421      0.00389355 
          20.747      0.00429879 
         20.7519      0.00473535 
         20.7569      0.00520302 
         20.7618      0.00570115 
         20.7667      0.00622851 
         20.7741      0.00707035 
         20.7815      0.00796519 
         20.7916      0.00925191 
         20.8127      0.0120021 
         20.8225      0.0132081 
         20.8291      0.0139462 
         20.8357      0.0146129 
         20.8422      0.0151931 
         20.8488      0.0156731 
         20.8554      0.0160414 
         20.8619      0.0162888 
         20.8675      0.0163994 
         20.8715      0.016421 
         20.8774      0.0163655 
          20.881      0.0162799 
         20.8875      0.0160267 
         20.8941      0.015653 
         20.9007      0.0151681 
         20.9072      0.0145837 
         20.9138      0.0139135 
         20.9204      0.0131727 
         20.9302      0.011964 
         20.9555      0.00867219 
         20.9635      0.00766842 
         20.9715      0.00671744 
         20.9785      0.00594213 
         20.9834      0.00542874 
         20.9883      0.00494517 
         20.9932      0.00449235 
         20.9982      0.0040707 
         21.0031      0.00368021 
         21.0068      0.00340751 
         21.0105      0.00315179 
         21.0142      0.00291261 
         21.0179      0.0026895 
         21.0216      0.00248188 
         21.0252      0.00228915 
         21.0289      0.00211064 
         21.0326      0.00194568 
          21.036      0.00180573 
         21.0394      0.001676 
         21.0428      0.00155592 
         21.0462      0.00144494 
         21.0496      0.0013425 
         21.0529      0.00124806 
         21.0563      0.00116109 
         21.0597      0.00108108 
