energy low [eV],energy high [eV],energy mid [eV],mean,std. dev.
0.001,0.0010470399110535467,0.0010235199555267732,2e-08,2e-08
0.0010470399110535467,0.0010962925753390188,0.0010716662431962828,0.0,0.0
0.0010962925753390188,0.0011478620805716298,0.0011220773279553243,1e-08,1e-08
0.0011478620805716298,0.001201857410743458,0.0011748597456575438,1e-08,1e-08
0.001201857410743458,0.0012583926764438763,0.0012301250435936672,0.0,0.0
0.0012583926764438763,0.0013175873560142307,0.0012879900162290534,0.0,0.0
0.0013175873560142307,0.0013795665480464177,0.0013485769520303241,0.0,0.0
0.0013795665480464177,0.0014444612357589696,0.0014120138919026938,2e-08,1.3844373104863458e-08
0.0014444612357589696,0.0015124085638093675,0.0014784348997841684,1e-08,1e-08
0.0015124085638093675,0.0015835521281275823,0.0015479803459684748,0.0,0.0
0.0015835521281275823,0.0016580422793833582,0.0016207972037554702,2e-08,1.3844373104863458e-08
0.0016580422793833582,0.0017360364407285694,0.0016970393600559638,0.0,0.0
0.0017360364407285694,0.0018176994404861568,0.001776867940607363,0.0,0.0
0.0018176994404861568,0.001903203860488707,0.0018604516504874319,1e-08,1e-08
0.001903203860488707,0.0019927304008028625,0.0019479671306457847,1e-08,1e-08
0.0019927304008028625,0.0020864682616103273,0.0020395993312065947,0.0,0.0
0.0020864682616103273,0.0021846155430525253,0.002135541902331426,4e-08,1.8708286933869706e-08
0.0021846155430525253,0.0022873796638839114,0.002235997603468218,6e-08,2.179449471770337e-08
0.0022873796638839114,0.0023949777998187017,0.0023411787318513063,6.999999999999999e-08,2.2912878474779198e-08
0.0023949777998187017,0.0025076373424973925,0.002451307571158047,4e-08,1.8708286933869706e-08
0.0025076373424973925,0.002625596380043022,0.002566616861270207,2e-08,1.3844373104863458e-08
0.002625596380043022,0.0027491042002227594,0.0026873502901328906,4e-08,1.8708286933869706e-08
0.0027491042002227594,0.0028784218172781696,0.0028137630087504643,6e-08,2.179449471770337e-08
0.0028784218172781696,0.0030138225235375226,0.002946122170407846,6.999999999999999e-08,2.70801280154532e-08
0.0030138225235375226,0.003155592466975903,0.0030847074952567127,1.4e-07,3.559026084010436e-08
0.003155592466975903,0.003304031255943691,0.0032298118614597967,1.3e-07,3.5707142142714254e-08
0.003304031255943691,0.0034594525923414203,0.0033817419241425556,1.2000000000000002e-07,3.570714214271425e-08
0.0034594525923414203,0.0036221849345791216,0.003540818763460271,1.2e-07,3.8514066694304474e-08
0.0036221849345791216,0.00379257219172122,0.003707378563150171,2.0000000000000002e-07,5.2041649986653326e-08
0.00379257219172122,0.003970974450283936,0.0038817733210025785,2.2000000000000006e-07,4.8562674281111546e-08
0.003970974450283936,0.004157768735221199,0.004064371592752568,2.3000000000000002e-07,5.188127472091127e-08
0.004157768735221199,0.004353349806707221,0.00425555927096421,2.2000000000000004e-07,4.406434688800762e-08
0.004353349806707221,0.004558130994399704,0.0044557404005534625,3.2000000000000006e-07,6.041522986797284e-08
0.004558130994399704,0.0047725450709466795,0.004665338032673192,3.2e-07,5.6862407030773273e-08
0.0047725450709466795,0.004997045166583053,0.004884795118764867,4.699999999999999e-07,6.664583007710737e-08
0.004997045166583053,0.005232105726749675,0.005114575446666364,5.100000000000001e-07,6.53197264742181e-08
0.005232105726749675,0.005478223514758732,0.005355164620754204,6.7e-07,9.096702699330128e-08
0.005478223514758732,0.00573591866162443,0.005607071088191581,6.399999999999998e-07,5.965176722724433e-08
0.00573591866162443,0.0060057357652776215,0.005870827213451026,6.900000000000001e-07,7.538788585265758e-08
0.0060057357652776215,0.006288245041487384,0.0061469904033825025,8.7e-07,9.027735042633899e-08
0.006288245041487384,0.006584043528921856,0.00643614428520462,9.600000000000001e-07,8.251262529657701e-08
0.006584043528921856,0.00689375635089502,0.006738899939908438,1.21e-06,8.860022573334677e-08
0.00689375635089502,0.0072180380364659435,0.007055897193680482,1.4700000000000003e-06,1.0033277962194926e-07
0.0072180380364659435,0.007557573903682418,0.007387805970074181,1.5e-06,1.3228756555322944e-07
0.007557573903682418,0.007913081507892243,0.00773532770578733,1.67e-06,9.4339811320566e-08
0.007913081507892243,0.00828531215818296,0.0080991968330376,2.03e-06,1.4671400751121215e-07
0.00828531215818296,0.008675052505154754,0.008480182331668857,2.6099999999999996e-06,1.6398678808570785e-07
0.008675052505154754,0.00908312620338208,0.008879089354268416,2.73e-06,1.398809017223816e-07
0.00908312620338208,0.009510395652077312,0.009296760927729696,3.1299999999999997e-06,1.9744197459844605e-07
0.009510395652077312,0.009957763817635065,0.00973407973485619,3.759999999999999e-06,1.6800297616411556e-07
0.009957763817635065,0.010426176141908838,0.010191969979771951,3.99e-06,1.5973937106007035e-07
0.010426176141908838,0.01091662254025284,0.010671399341080839,5.0099999999999995e-06,2.1577380131362843e-07
0.01091662254025284,0.011430139493551475,0.011173381016902156,5.35e-06,2.986078811194832e-07
0.011430139493551475,0.011967812238657767,0.01169897586610462,6.29e-06,2.2807162617622354e-07
0.011967812238657767,0.012530777061869775,0.01224929465026377,6.859999999999999e-06,2.590366769397744e-07
0.012530777061869775,0.01312022370029195,0.012825500381080861,7.890000000000002e-06,2.961840643923959e-07
0.01312022370029195,0.013737397856156318,0.013428810778224134,9.17e-06,2.9251780572585044e-07
0.013737397856156318,0.014383603829417092,0.014060500842786705,1.0030000000000002e-05,3.10349265613219e-07
0.014383603829417092,0.015060207274182318,0.014721905551799705,1.1809999999999997e-05,3.9165248201264895e-07
0.015060207274182318,0.01576863808480783,0.015414422679495074,1.3029999999999997e-05,3.4500000000000347e-07
0.01576863808480783,0.016510393417752758,0.016139515751280295,1.5690000000000004e-05,5.695904961753926e-07
0.016510393417752758,0.017287040855582907,0.01689871713666783,1.7829999999999997e-05,4.33426272084814e-07
0.017287040855582907,0.018100221719808556,0.01769363128769573,2.0789999999999992e-05,3.760208327562164e-07
0.018100221719808556,0.01895165453955782,0.018525938129683187,2.2409999999999994e-05,2.8609439001840823e-07
0.01895165453955782,0.019843138683416164,0.01939739661148699,2.401e-05,5.51036901365654e-07
0.019843138683416164,0.020776558162107252,0.020309848422761706,2.7310000000000004e-05,3.23161466349744e-07
0.020776558162107252,0.021753885610051614,0.021265221886079433,3.2659999999999996e-05,5.05774982905778e-07
0.021753885610051614,0.02277718645421747,0.02226553603213454,3.6200000000000006e-05,6.986594306240842e-07
0.02277718645421747,0.023848623279073906,0.023312904866645688,3.826e-05,5.046616027927375e-07
0.023848623279073906,0.02497046039687107,0.02440954183797249,4.514e-05,5.396912697706721e-07
0.02497046039687107,0.026145068632905992,0.02555776451488853,5.170000000000002e-05,8.117624857883321e-07
0.026145068632905992,0.02737493033588676,0.026759999484396377,5.545999999999999e-05,7.123435500749322e-07
0.02737493033588676,0.02866264462398391,0.028018787479935338,6.235000000000001e-05,8.937281465859461e-07
0.02866264462398391,0.03001093287765553,0.02933678875081972,7.032e-05,1.0106227453077206e-06
0.03001093287765553,0.031422644490854405,0.030716788684254967,7.88e-05,8.381527307119766e-07
0.031422644490854405,0.03290076289277141,0.03216170369181291,8.791e-05,8.454387421135588e-07
0.03290076289277141,0.034448411852841206,0.033674587372806306,9.677999999999999e-05,8.742044002025002e-07
0.034448411852841206,0.0360688620823348,0.035258636967588006,0.00010636999999999997,9.915392074951822e-07
0.0360688620823348,0.03776553814649047,0.03691720011441263,0.00011879,9.361579282719599e-07
0.03776553814649047,0.039542025701790676,0.03865378192414057,0.00013328000000000002,1.184036176248993e-06
0.039542025701790676,0.041402079073679966,0.040472052387735324,0.00014567999999999995,9.950418751659627e-07
0.041402079073679966,0.04334962919073777,0.04237585413220887,0.00016097,1.3371549399128597e-06
0.04334962919073777,0.04538879189207431,0.04436921054140604,0.00017691,1.1889140703458941e-06
0.04538879189207431,0.04752387662550542,0.046456334258789866,0.00019384000000000006,1.1952057005662182e-06
0.04752387662550542,0.04975939555488892,0.04864163609019717,0.00021250999999999998,1.6466810053355456e-06
0.04975939555488892,0.052100073095869136,0.05092973432537903,0.00023476,1.4524031809382437e-06
0.052100073095869136,0.05455085590018209,0.05332546449802561,0.00025506,1.7486470960908538e-06
0.05455085590018209,0.057116923309621495,0.05583388960490179,0.00027687,1.799312368656154e-06
0.057116923309621495,0.059803698301758336,0.05846031080568992,0.00030136999999999997,1.808148224012759e-06
0.059803698301758336,0.06261685895054618,0.06121027862615226,0.00032879,1.8532449019674207e-06
0.06261685895054618,0.06556235042603231,0.06408960468828925,0.00036042000000000013,1.6357159492595436e-06
0.06556235042603231,0.06864639755853433,0.06710437399228332,0.00038384000000000004,1.646959319472512e-06
0.06864639755853433,0.07187551799383418,0.07026095777618425,0.00041829,2.1712937771446504e-06
0.07187551799383418,0.07525653596719173,0.07356602698051296,0.0004497300000000001,2.310660078850834e-06
0.07525653596719173,0.07879659672528647,0.0770265663462391,0.0004821599999999999,2.074542118155837e-06
0.07879659672528647,0.08250318162656611,0.08064988917592629,0.0005143899999999999,2.1211769531726688e-06
0.08250318162656611,0.08638412395191439,0.08444365278924025,0.0005533300000000001,1.9448500370629482e-06
0.08638412395191439,0.090447625459051,0.08841587470548269,0.00058857,2.465745323426517e-06
0.090447625459051,0.09470227371564925,0.09257494958735013,0.0006286599999999997,2.6724239933087098e-06
0.09470227371564925,0.099157060247802,0.09692966698172563,0.00066439,2.64492753523966e-06
0.099157060247802,0.10382139954218973,0.10148922989499587,0.0007059700000000001,2.378388810376103e-06
0.10382139954218973,0.10870514894210906,0.1062632742421494,0.0007399499999999997,2.5373050007199045e-06
0.10870514894210906,0.1138186294794084,0.11126188921075873,0.00078,3.252178756873104e-06
0.1138186294794084,0.11917264768635635,0.11649563858288238,0.0008141899999999999,2.6227482405547634e-06
0.11917264768635635,0.1247785184335382,0.12197558305994727,0.00084192,3.815093926321328e-06
0.1247785184335382,0.13064808884204515,0.12771330363779168,0.000884,3.5134266274779983e-06
0.13064808884204515,0.1367937633204908,0.13372092608126798,0.00091069,3.7295352704235176e-06
0.1367937633204908,0.1432285297797666,0.1400111465501287,0.0009362600000000002,2.9062246414624047e-06
0.1432285297797666,0.14996598708093709,0.14659725843035185,0.0009723100000000001,3.3393886666056666e-06
0.14996598708093709,0.15702037377428169,0.1534931804276094,0.00098951,2.9871767607566083e-06
0.15702037377428169,0.16440659819021855,0.1607134859822501,0.00101298,2.542592181217972e-06
0.16440659819021855,0.1721402699457026,0.16827343406796058,0.00103022,3.9573328560187025e-06
0.1721402699457026,0.18023773293268194,0.17618900143919228,0.0010336799999999997,2.728687107996958e-06
0.18023773293268194,0.1887160998583282,0.18447691639550506,0.0010431996382400002,4.345829628142229e-06
0.1887160998583282,0.19759328841003618,0.19315469413418218,0.00103915,3.4617553350850712e-06
0.19759328841003618,0.20688805912162206,0.2022406737658291,0.0010266399999999997,2.5545335516846022e-06
0.20688805912162206,0.21662005502074405,0.21175405707118305,0.00101787,3.017280784635229e-06
0.21662005502074405,0.226809843141334,0.22171494908103903,0.0010005300000000001,3.389976646917637e-06
0.226809843141334,0.2374789579887712,0.2321444005650526,0.00098234,3.125929195188339e-06
0.2374789579887712,0.24864994704965193,0.24306445251921155,0.00094782,3.845601383395675e-06
0.24864994704965193,0.26034641844233664,0.2544981827459943,0.0009205099999999999,2.8415620704105694e-06
0.26034641844233664,0.2725930908089736,0.26646975462565514,0.0008811200000000002,3.126303728043914e-06
0.2725930908089736,0.28541584555443905,0.2790044681817063,0.00083653,2.6979282174787017e-06
0.28541584555443905,0.29884178154259267,0.29212881354851583,0.00079362,3.099298307682283e-06
0.29884178154259267,0.31289927236543963,0.3058705269540162,0.0007419399999999999,2.165413740299334e-06
0.31289927236543963,0.3276180263062294,0.3202586493358345,0.00069132,2.767652434825199e-06
0.3276180263062294,0.34302914912321286,0.33532358771472115,0.0006371999999999999,2.094337604114286e-06
0.34302914912321286,0.3591652097867426,0.35109717945497776,0.0005858699999999999,2.18461094934589e-06
0.3591652097867426,0.3760603093086394,0.367612759547691,0.00052908,1.7980151093166222e-06
0.3760603093086394,0.393750152809287,0.3849052310589632,0.00047793999999999994,1.907620682072016e-06
0.393750152809287,0.41227212497475624,0.4030111388920216,0.00042785999999999996,2.8336181229424467e-06
0.41227212497475624,0.4316653690634254,0.4219687470190908,0.00038010999999999996,1.7615736336205878e-06
0.4316653690634254,0.4519708696290653,0.4418181193462454,0.00032969,1.9225785636308183e-06
0.4519708696290653,0.47323153913521065,0.462601204382138,0.00029083000000000006,1.8851237801974985e-06
0.47323153913521065,0.49549230864386395,0.4843619238895373,0.0002512299999999999,1.5838323774953766e-06
0.49549230864386395,0.5188002227701878,0.5071462657070258,0.00021650999999999997,1.6769565687081428e-06
0.5188002227701878,0.5432045391038576,0.5310023809370227,0.00018479,1.351286424115876e-06
0.5432045391038576,0.5687568323071858,0.5559806857055216,0.00016011999999999998,1.1873570089348774e-06
0.5687568323071858,0.5955111031100121,0.5821339677085989,0.00013547,9.947068244797764e-07
0.5955111031100121,0.6235238924317065,0.6095174977708593,0.00011516,9.445986802164263e-07
0.6235238924317065,0.6528544008714552,0.6381891466515808,9.730000000000001e-05,9.561206339508443e-07
0.6528544008714552,0.6835646138193648,0.66820950734541,8.687e-05,9.616738878989337e-07
0.6835646138193648,0.7157194324527797,0.6996420231360723,7.329e-05,8.592244565110083e-07
0.7157194324527797,0.7493868108946533,0.7325531216737164,6.520000000000001e-05,7.867390503421627e-07
0.7493868108946533,0.7846378998238388,0.7670123553592461,5.821e-05,6.621744483140223e-07
0.7846378998238388,0.8215471968407938,0.8030925483323164,5.3800000000000013e-05,8.711821470468812e-07
0.8215471968407938,0.8601927039064753,0.8408699503736345,4.8440000000000004e-05,6.500448702461282e-07
0.8601927039064753,0.9006560921871456,0.8804243980468105,4.810999999999999e-05,7.732614909158322e-07
0.9006560921871456,0.9430228746534638,0.9218394834203048,4.4880000000000004e-05,8.632689808705638e-07
0.9430228746534638,0.9873825867986226,0.9652027307260431,4.2749999999999996e-05,7.302967433402273e-07
0.9873825867986226,1.0338289758574506,1.0106057813280365,4.2430000000000005e-05,7.150932340145058e-07
1.0338289758574506,1.0824601989263642,1.0581445873919075,4.027e-05,7.262804784195495e-07
1.0824601989263642,1.1333790304028648,1.1079196146646146,4.128e-05,6.524505089787697e-07
1.1333790304028648,1.1866930791829704,1.1600360547929176,3.992999999999999e-05,6.455811335533603e-07
1.1866930791829704,1.2425150160755967,1.2146040476292836,3.9319999999999996e-05,4.7225522760475264e-07
1.2425150160755967,1.3009628119144887,1.2717389139950428,3.9219999999999994e-05,6.909112340477199e-07
1.3009628119144887,1.3621599868709182,1.3315613993927036,3.898e-05,5.965037021399335e-07
1.3621599868709182,1.4262358714940264,1.3941979291824724,3.733999999999999e-05,8.073722809212804e-07
1.4262358714940264,1.493325880030483,1.4597808757622546,3.8109999999999986e-05,5.928532702111403e-07
1.493325880030483,1.5635717966010745,1.5284488383157786,3.746999999999999e-05,7.646240906484842e-07
1.5635717966010745,1.6371220748390232,1.6003469357200488,3.702e-05,4.962190376570909e-07
1.6371220748390232,1.7141321516232484,1.6756271132311358,3.7059999999999994e-05,5.258485206470425e-07
1.7141321516232484,1.7947647755696305,1.7544484635964395,3.718e-05,6.975433080939476e-07
1.7947647755696305,1.8791903509744645,1.8369775632720475,3.6920000000000006e-05,7.47317424748883e-07
1.8791903509744645,1.9675872979369864,1.9233888244557256,3.5869999999999994e-05,6.609841147864386e-07
1.9675872979369864,2.0601424294220303,2.0138648636795082,3.499e-05,5.453362876855525e-07
2.0601424294220303,2.15705134605968,2.1085968877408554,3.637e-05,6.959885056522105e-07
2.15705134605968,2.2585188495162605,2.20778509778797,3.571e-05,6.426961438606331e-07
2.2585188495162605,2.3647593753102636,2.3116391124132623,3.497e-05,6.910619846776883e-07
2.3647593753102636,2.4759974459878986,2.4203784106490813,3.538e-05,5.435454596136988e-07
2.4759974459878986,2.592468145615978,2.5342327958019384,3.5079999999999996e-05,4.4947191235940155e-07
2.592468145615978,2.7144176165949068,2.6534428811054425,3.414999999999999e-05,4.821825380496788e-07
2.7144176165949068,2.842103579841711,2.778260598218309,3.4490000000000004e-05,6.984327693724877e-07
2.842103579841711,2.9757958794424315,2.908949729642071,3.4529999999999996e-05,5.759629617721356e-07
2.9757958794424315,3.1157770529249142,3.0457864661836727,3.3799999999999995e-05,6.709756577800332e-07
3.1157770529249142,3.2623429283571834,3.1890599906410486,3.4720000000000006e-05,7.365912480247412e-07
3.2623429283571834,3.415803249533272,3.339073088945228,3.331e-05,6.031652620412883e-07
3.415803249533272,3.5764823305677327,3.496142790050502,3.337000000000001e-05,5.016888145719778e-07
3.5764823305677327,3.74471974128222,3.6606010359249765,3.308000000000001e-05,6.162250671088539e-07
3.74471974128222,3.920871024832596,3.832795383057408,3.3100000000000005e-05,6.71751442127209e-07
3.920871024832596,4.105308449093149,4.013089736962873,3.393999999999999e-05,5.472050194701769e-07
4.105308449093149,4.2984217933858595,4.201865121239504,3.392e-05,5.298820623497306e-07
4.2984217933858595,4.500619172217357,4.399520482801608,3.244e-05,4.136423575989281e-07
4.500619172217357,4.712327897764348,4.606473534990853,3.255999999999999e-05,4.1540141229099077e-07
4.712327897764348,4.93399538293033,4.8231616403473385,3.2670000000000004e-05,5.499469671401424e-07
4.93399538293033,5.166090086881981,5.050042734906155,3.204999999999999e-05,5.248015497944695e-07
5.166090086881981,5.409102505063519,5.28759629597275,3.2309999999999994e-05,6.995951210045347e-07
5.409102505063519,5.663546205781223,5.536324355422371,3.2149999999999995e-05,5.281650625830375e-07
5.663546205781223,5.9299589155488235,5.796752560665023,3.213000000000001e-05,5.820438127838549e-07
5.9299589155488235,6.2089036554874255,6.0694312855181245,3.111e-05,4.509434554353799e-07
6.2089036554874255,6.5009699311815945,6.35493679333451,3.128e-05,6.453874805107366e-07
6.5009699311815945,6.806774978506158,6.653872454843876,3.1440000000000004e-05,4.748420790115255e-07
6.806774978506158,7.1269650680565935,6.966870023281375,2.988e-05,5.246268515176639e-07
7.1269650680565935,7.462216870939709,7.2945909694981514,2.92e-05,5.507570547286063e-07
7.462216870939709,7.8132388888109885,7.637727879875349,3.052e-05,5.606766745044173e-07
7.8132388888109885,8.180772951180769,7.997005919995878,3.048e-05,6.135484224302626e-07
8.180772951180769,8.565595783153572,8.37318436716717,3.0169999999999994e-05,6.182502190321929e-07
8.565595783153572,8.96852064691375,8.76705821503366,3.0309999999999993e-05,6.741167060185844e-07
8.96852064691375,9.39039906042647,9.17945985367011,2.9919999999999998e-05,4.771268175233967e-07
9.39039906042647,9.832122596986238,9.611260828706353,3.0299999999999998e-05,5.866571968932765e-07
9.832122596986238,10.294624769416025,10.063373683201132,2.9279999999999997e-05,6.668208155119309e-07
10.294624769416025,10.778883002898993,10.53675388615751,2.9470000000000004e-05,6.253865471317102e-07
10.778883002898993,11.285920700611948,11.03240185175547,2.8620000000000004e-05,5.679128454261119e-07
11.285920700611948,11.816809406526113,11.55136505356903,2.926e-05,5.32188876246007e-07
11.816809406526113,12.372671069945815,12.094740238235964,2.922e-05,5.132250968142422e-07
