energy low [eV],energy high [eV],energy mid [eV],mean,std. dev.
0.001,0.0010470399110535467,0.0010235199555267732,0.0,0.0
0.0010470399110535467,0.0010962925753390188,0.0010716662431962828,0.0,0.0
0.0010962925753390188,0.0011478620805716298,0.0011220773279553243,0.0,0.0
0.0011478620805716298,0.001201857410743458,0.0011748597456575438,0.0,0.0
0.001201857410743458,0.0012583926764438763,0.0012301250435936672,0.0,0.0
0.0012583926764438763,0.0013175873560142307,0.0012879900162290534,0.0,0.0
0.0013175873560142307,0.0013795665480464177,0.0013485769520303241,0.0,0.0
0.0013795665480464177,0.0014444612357589696,0.0014120138919026938,0.0,0.0
0.0014444612357589696,0.0015124085638093675,0.0014784348997841684,0.0,0.0
0.0015124085638093675,0.0015835521281275823,0.0015479803459684748,0.0,0.0
0.0015835521281275823,0.0016580422793833582,0.0016207972037554702,0.0,0.0
0.0016580422793833582,0.0017360364407285694,0.0016970393600559638,0.0,0.0
0.0017360364407285694,0.0018176994404861568,0.001776867940607363,0.0,0.0
0.0018176994404861568,0.001903203860488707,0.0018604516504874319,0.0,0.0
0.001903203860488707,0.0019927304008028625,0.0019479671306457847,0.0,0.0
0.0019927304008028625,0.0020864682616103273,0.0020395993312065947,0.0,0.0
0.0020864682616103273,0.0021846155430525253,0.002135541902331426,0.0,0.0
0.0021846155430525253,0.0022873796638839114,0.002235997603468218,0.0,0.0
0.0022873796638839114,0.0023949777998187017,0.0023411787318513063,0.0,0.0
0.0023949777998187017,0.0025076373424973925,0.002451307571158047,0.0,0.0
0.0025076373424973925,0.002625596380043022,0.002566616861270207,0.0,0.0
0.002625596380043022,0.0027491042002227594,0.0026873502901328906,0.0,0.0
0.0027491042002227594,0.0028784218172781696,0.0028137630087504643,0.0,0.0
0.0028784218172781696,0.0030138225235375226,0.002946122170407846,0.0,0.0
0.0030138225235375226,0.003155592466975903,0.0030847074952567127,0.0,0.0
0.003155592466975903,0.003304031255943691,0.0032298118614597967,0.0,0.0
0.003304031255943691,0.0034594525923414203,0.0033817419241425556,0.0,0.0
0.0034594525923414203,0.0036221849345791216,0.003540818763460271,0.0,0.0
0.0036221849345791216,0.00379257219172122,0.003707378563150171,0.0,0.0
0.00379257219172122,0.003970974450283936,0.0038817733210025785,0.0,0.0
0.003970974450283936,0.004157768735221199,0.004064371592752568,0.0,0.0
0.004157768735221199,0.004353349806707221,0.00425555927096421,0.0,0.0
0.004353349806707221,0.004558130994399704,0.0044557404005534625,1e-08,1e-08
0.004558130994399704,0.0047725450709466795,0.004665338032673192,0.0,0.0
0.0047725450709466795,0.004997045166583053,0.004884795118764867,1e-08,1e-08
0.004997045166583053,0.005232105726749675,0.005114575446666364,0.0,0.0
0.005232105726749675,0.005478223514758732,0.005355164620754204,0.0,0.0
0.005478223514758732,0.00573591866162443,0.005607071088191581,1e-08,1e-08
0.00573591866162443,0.0060057357652776215,0.005870827213451026,5e-08,2.0412414523193148e-08
0.0060057357652776215,0.006288245041487384,0.0061469904033825025,2e-08,1.3844373104863458e-08
0.006288245041487384,0.006584043528921856,0.00643614428520462,4e-08,1.8708286933869706e-08
0.006584043528921856,0.00689375635089502,0.006738899939908438,1e-08,1e-08
0.00689375635089502,0.0072180380364659435,0.007055897193680482,1e-08,1e-08
0.0072180380364659435,0.007557573903682418,0.007387805970074181,6.999999999999999e-08,2.70801280154532e-08
0.007557573903682418,0.007913081507892243,0.00773532770578733,2e-08,1.3844373104863458e-08
0.007913081507892243,0.00828531215818296,0.0080991968330376,1e-08,1e-08
0.00828531215818296,0.008675052505154754,0.008480182331668857,6e-08,2.179449471770337e-08
0.008675052505154754,0.00908312620338208,0.008879089354268416,4e-08,1.8708286933869706e-08
0.00908312620338208,0.009510395652077312,0.009296760927729696,8e-08,3.741657386773941e-08
0.009510395652077312,0.009957763817635065,0.00973407973485619,3.0000000000000004e-08,1.6583123951776998e-08
0.009957763817635065,0.010426176141908838,0.010191969979771951,1.0999999999999999e-07,3.840572873934304e-08
0.010426176141908838,0.01091662254025284,0.010671399341080839,1.5000000000000002e-07,2.8867513459481282e-08
0.01091662254025284,0.011430139493551475,0.011173381016902156,8e-08,2.3804761428476166e-08
0.011430139493551475,0.011967812238657767,0.01169897586610462,1.8e-07,4.2130748865881794e-08
0.011967812238657767,0.012530777061869775,0.01224929465026377,1.9000000000000003e-07,3.617089069035116e-08
0.012530777061869775,0.01312022370029195,0.012825500381080861,1.3e-07,3.8514066694304474e-08
0.01312022370029195,0.013737397856156318,0.013428810778224134,1.3e-07,3.265986323710904e-08
0.013737397856156318,0.014383603829417092,0.014060500842786705,2.7000000000000006e-07,4.9833054625753495e-08
0.014383603829417092,0.015060207274182318,0.014721905551799705,2.9000000000000003e-07,5.338539126015656e-08
0.015060207274182318,0.01576863808480783,0.015414422679495074,2.600000000000001e-07,5.678908345800271e-08
0.01576863808480783,0.016510393417752758,0.016139515751280295,3.2999999999999996e-07,6.244997998398397e-08
0.016510393417752758,0.017287040855582907,0.01689871713666783,3.3e-07,6.570134448142344e-08
0.017287040855582907,0.018100221719808556,0.01769363128769573,4.399999999999999e-07,5.2599112793531676e-08
0.018100221719808556,0.01895165453955782,0.018525938129683187,5.3e-07,8.934950102453473e-08
0.01895165453955782,0.019843138683416164,0.01939739661148699,6.200000000000002e-07,7.921489758877424e-08
0.019843138683416164,0.020776558162107252,0.020309848422761706,5.099999999999999e-07,6.370504951205473e-08
0.020776558162107252,0.021753885610051614,0.021265221886079433,7.300000000000001e-07,9.004628439493396e-08
0.021753885610051614,0.02277718645421747,0.02226553603213454,7.099999999999997e-07,5.139714648369775e-08
0.02277718645421747,0.023848623279073906,0.023312904866645688,9.7e-07,1.0539607835841587e-07
0.023848623279073906,0.02497046039687107,0.02440954183797249,8.700000000000001e-07,5.972157622389637e-08
0.02497046039687107,0.026145068632905992,0.02555776451488853,1.0400000000000002e-06,9.53939201416945e-08
0.026145068632905992,0.02737493033588676,0.026759999484396377,1.1500000000000002e-06,9.013878188659961e-08
0.02737493033588676,0.02866264462398391,0.028018787479935338,1.3600000000000003e-06,1.3156113914577246e-07
0.02866264462398391,0.03001093287765553,0.02933678875081972,1.52e-06,1.4062361110425233e-07
0.03001093287765553,0.031422644490854405,0.030716788684254967,1.6299999999999999e-06,1.291962331752233e-07
0.031422644490854405,0.03290076289277141,0.03216170369181291,1.6499999999999997e-06,1.1989578808281817e-07
0.03290076289277141,0.034448411852841206,0.033674587372806306,1.7900000000000002e-06,1.007058422668052e-07
0.034448411852841206,0.0360688620823348,0.035258636967588006,2.260000000000001e-06,1.2117480486195635e-07
0.0360688620823348,0.03776553814649047,0.03691720011441263,2.7499999999999995e-06,1.4648663192705847e-07
0.03776553814649047,0.039542025701790676,0.03865378192414057,2.7899999999999995e-06,1.7717693604605165e-07
0.039542025701790676,0.041402079073679966,0.040472052387735324,2.99e-06,1.8623461905170384e-07
0.041402079073679966,0.04334962919073777,0.04237585413220887,3.35e-06,1.7017148213885122e-07
0.04334962919073777,0.04538879189207431,0.04436921054140604,3.98e-06,1.391342277562695e-07
0.04538879189207431,0.04752387662550542,0.046456334258789866,4.19e-06,1.5631165450257902e-07
0.04752387662550542,0.04975939555488892,0.04864163609019717,4.62e-06,2.492154355840213e-07
0.04975939555488892,0.052100073095869136,0.05092973432537903,5.23e-06,1.9627786426390602e-07
0.052100073095869136,0.05455085590018209,0.05332546449802561,5.889999999999999e-06,2.3052476367337907e-07
0.05455085590018209,0.057116923309621495,0.05583388960490179,6.03e-06,2.0932430978428394e-07
0.057116923309621495,0.059803698301758336,0.05846031080568992,7.050000000000001e-06,2.86865241300974e-07
0.059803698301758336,0.06261685895054618,0.06121027862615226,7.72e-06,3.2542280190545986e-07
0.06261685895054618,0.06556235042603231,0.06408960468828925,8.160000000000001e-06,2.2816295346381758e-07
0.06556235042603231,0.06864639755853433,0.06710437399228332,8.499999999999998e-06,2.5980762113533394e-07
0.06864639755853433,0.07187551799383418,0.07026095777618425,9.560000000000002e-06,3.4799425282610377e-07
0.07187551799383418,0.07525653596719173,0.07356602698051296,9.919999999999998e-06,3.315745265647961e-07
0.07525653596719173,0.07879659672528647,0.0770265663462391,1.0679999999999998e-05,3.1705677724975525e-07
0.07879659672528647,0.08250318162656611,0.08064988917592629,1.184e-05,2.982169232846008e-07
0.08250318162656611,0.08638412395191439,0.08444365278924025,1.2699999999999999e-05,4.322904116447651e-07
0.08638412395191439,0.090447625459051,0.08841587470548269,1.409e-05,3.9498945133593484e-07
0.090447625459051,0.09470227371564925,0.09257494958735013,1.431e-05,3.7729298959826906e-07
0.09470227371564925,0.099157060247802,0.09692966698172563,1.5219999999999997e-05,3.557035282366542e-07
0.099157060247802,0.10382139954218973,0.10148922989499587,1.721e-05,3.9149286924115017e-07
0.10382139954218973,0.10870514894210906,0.1062632742421494,1.791e-05,4.102539863710412e-07
0.10870514894210906,0.1138186294794084,0.11126188921075873,1.915e-05,3.926406329796526e-07
0.1138186294794084,0.11917264768635635,0.11649563858288238,2.0379999999999995e-05,3.8327535793474614e-07
0.11917264768635635,0.1247785184335382,0.12197558305994727,2.1709999999999997e-05,4.0225406565171596e-07
0.1247785184335382,0.13064808884204515,0.12771330363779168,2.259e-05,5.115092048699337e-07
0.13064808884204515,0.1367937633204908,0.13372092608126798,2.287e-05,5.202403290787772e-07
0.1367937633204908,0.1432285297797666,0.1400111465501287,2.497e-05,5.081256406310021e-07
0.1432285297797666,0.14996598708093709,0.14659725843035185,2.6019999999999998e-05,4.5664537663268714e-07
0.14996598708093709,0.15702037377428169,0.1534931804276094,2.711e-05,4.356699821347916e-07
0.15702037377428169,0.16440659819021855,0.1607134859822501,2.7359999999999996e-05,5.240229002629724e-07
0.16440659819021855,0.1721402699457026,0.16827343406796058,2.8019999999999993e-05,4.877499359303035e-07
0.1721402699457026,0.18023773293268194,0.17618900143919228,2.9539999999999995e-05,3.872122587591215e-07
0.18023773293268194,0.1887160998583282,0.18447691639550506,3.0390000000000005e-05,5.887982110479942e-07
0.1887160998583282,0.19759328841003618,0.19315469413418218,2.9629999999999996e-05,6.382136528363234e-07
0.19759328841003618,0.20688805912162206,0.2022406737658291,3.0659999999999994e-05,5.528109984434324e-07
0.20688805912162206,0.21662005502074405,0.21175405707118305,3.1140000000000003e-05,5.649631256403625e-07
0.21662005502074405,0.226809843141334,0.22171494908103903,3.063e-05,6.135823769742072e-07
0.226809843141334,0.2374789579887712,0.2321444005650526,3.1679999999999995e-05,5.909949238360728e-07
0.2374789579887712,0.24864994704965193,0.24306445251921155,3.067000000000001e-05,4.4034077712605496e-07
0.24864994704965193,0.26034641844233664,0.2544981827459943,3.087e-05,5.854343117150976e-07
0.26034641844233664,0.2725930908089736,0.26646975462565514,3.1280000000000005e-05,7.565436757605696e-07
0.2725930908089736,0.28541584555443905,0.2790044681817063,3.1089999999999995e-05,5.461761010272628e-07
0.28541584555443905,0.29884178154259267,0.29212881354851583,2.869e-05,4.361956747454926e-07
0.29884178154259267,0.31289927236543963,0.3058705269540162,2.8829999999999997e-05,4.96177051733225e-07
0.31289927236543963,0.3276180263062294,0.3202586493358345,2.761e-05,5.049917491075057e-07
0.3276180263062294,0.34302914912321286,0.33532358771472115,2.6029999999999993e-05,5.006911889245586e-07
0.34302914912321286,0.3591652097867426,0.35109717945497776,2.474e-05,5.120384100175872e-07
0.3591652097867426,0.3760603093086394,0.367612759547691,2.397e-05,5.474029594366455e-07
0.3760603093086394,0.393750152809287,0.3849052310589632,2.288e-05,4.819923927477068e-07
0.393750152809287,0.41227212497475624,0.4030111388920216,2.134e-05,4.6365396579777156e-07
0.41227212497475624,0.4316653690634254,0.4219687470190908,2.1509999999999996e-05,5.294415296643617e-07
0.4316653690634254,0.4519708696290653,0.4418181193462454,1.945e-05,5.107184482014891e-07
0.4519708696290653,0.47323153913521065,0.462601204382138,1.889e-05,5.078713747922129e-07
0.47323153913521065,0.49549230864386395,0.4843619238895373,1.757e-05,3.8311225508981077e-07
0.49549230864386395,0.5188002227701878,0.5071462657070258,1.7519999999999998e-05,4.0179804213892076e-07
0.5188002227701878,0.5432045391038576,0.5310023809370227,1.624e-05,4.2609662440968963e-07
0.5432045391038576,0.5687568323071858,0.5559806857055216,1.515e-05,3.99217985566782e-07
0.5687568323071858,0.5955111031100121,0.5821339677085989,1.4429999999999999e-05,3.951581961695873e-07
0.5955111031100121,0.6235238924317065,0.6095174977708593,1.4389999999999998e-05,3.0993278841280307e-07
0.6235238924317065,0.6528544008714552,0.6381891466515808,1.2869999999999997e-05,3.1790984046844005e-07
0.6528544008714552,0.6835646138193648,0.66820950734541,1.3289999999999998e-05,3.10470073705453e-07
0.6835646138193648,0.7157194324527797,0.6996420231360723,1.231e-05,2.902154372186265e-07
0.7157194324527797,0.7493868108946533,0.7325531216737164,1.187e-05,3.266369034060076e-07
0.7493868108946533,0.7846378998238388,0.7670123553592461,1.22e-05,3.4970225430595326e-07
0.7846378998238388,0.8215471968407938,0.8030925483323164,1.202e-05,4.5067541904716117e-07
0.8215471968407938,0.8601927039064753,0.8408699503736345,1.087e-05,3.294945624235195e-07
0.8601927039064753,0.9006560921871456,0.8804243980468105,1.184e-05,3.3099597177810594e-07
0.9006560921871456,0.9430228746534638,0.9218394834203048,1.0969999999999998e-05,2.8332843133014296e-07
0.9430228746534638,0.9873825867986226,0.9652027307260431,1.1299999999999997e-05,2.7118566825455314e-07
0.9873825867986226,1.0338289758574506,1.0106057813280365,1.048e-05,3.322649545167214e-07
1.0338289758574506,1.0824601989263642,1.0581445873919075,1.045e-05,4.198213905936657e-07
1.0824601989263642,1.1333790304028648,1.1079196146646146,1.0669999999999998e-05,3.3000000000000256e-07
1.1333790304028648,1.1866930791829704,1.1600360547929176,1.0709999999999999e-05,4.6135669497689164e-07
1.1866930791829704,1.2425150160755967,1.2146040476292836,1.036e-05,3.4006126898937623e-07
1.2425150160755967,1.3009628119144887,1.2717389139950428,1.0199999999999999e-05,2.376096238230535e-07
1.3009628119144887,1.3621599868709182,1.3315613993927036,9.98e-06,2.711549372591256e-07
1.3621599868709182,1.4262358714940264,1.3941979291824724,1.0759999999999999e-05,2.501999200639391e-07
1.4262358714940264,1.493325880030483,1.4597808757622546,1.013e-05,2.731452604994872e-07
1.493325880030483,1.5635717966010745,1.5284488383157786,1.0019999999999999e-05,3.181718613160714e-07
1.5635717966010745,1.6371220748390232,1.6003469357200488,1.0249999999999998e-05,2.8577380332470873e-07
1.6371220748390232,1.7141321516232484,1.6756271132311358,9.889999999999998e-06,3.671625434781357e-07
1.7141321516232484,1.7947647755696305,1.7544484635964395,1.05e-05,4.0568871482126935e-07
1.7947647755696305,1.8791903509744645,1.8369775632720475,9.509999999999997e-06,3.1374086972107383e-07
1.8791903509744645,1.9675872979369864,1.9233888244557256,1.0039999999999999e-05,2.71062723368597e-07
1.9675872979369864,2.0601424294220303,2.0138648636795082,1.071e-05,2.3921747427811055e-07
2.0601424294220303,2.15705134605968,2.1085968877408554,9.32e-06,2.9598704926623525e-07
2.15705134605968,2.2585188495162605,2.20778509778797,9.819999999999997e-06,3.183682354339616e-07
2.2585188495162605,2.3647593753102636,2.3116391124132623,1.025e-05,3.0855847635955996e-07
2.3647593753102636,2.4759974459878986,2.4203784106490813,9.38e-06,3.1626729201737173e-07
2.4759974459878986,2.592468145615978,2.5342327958019384,9.909999999999998e-06,3.469750231164592e-07
2.592468145615978,2.7144176165949068,2.6534428811054425,1.0069999999999998e-05,2.7670682439482367e-07
2.7144176165949068,2.842103579841711,2.778260598218309,8.979999999999999e-06,3.448792059064538e-07
2.842103579841711,2.9757958794424315,2.908949729642071,9.61e-06,3.3262842131523683e-07
2.9757958794424315,3.1157770529249142,3.0457864661836727,9.309999999999999e-06,3.515679166249385e-07
3.1157770529249142,3.2623429283571834,3.1890599906410486,9.009999999999998e-06,2.9772750404802545e-07
3.2623429283571834,3.415803249533272,3.339073088945228,9.16e-06,3.07164451068153e-07
3.415803249533272,3.5764823305677327,3.496142790050502,9.649999999999997e-06,3.2914029430219304e-07
3.5764823305677327,3.74471974128222,3.6606010359249765,9.509999999999999e-06,2.501999200639359e-07
3.74471974128222,3.920871024832596,3.832795383057408,9.389999999999998e-06,3.2470499431535624e-07
3.920871024832596,4.105308449093149,4.013089736962873,9.489999999999997e-06,3.5895682191595516e-07
4.105308449093149,4.2984217933858595,4.201865121239504,8.88e-06,3.4644624402639965e-07
4.2984217933858595,4.500619172217357,4.399520482801608,8.340000000000001e-06,2.6959846686012874e-07
4.500619172217357,4.712327897764348,4.606473534990853,8.97e-06,3.364396924660731e-07
4.712327897764348,4.93399538293033,4.8231616403473385,9.34e-06,3.1946569977594306e-07
4.93399538293033,5.166090086881981,5.050042734906155,9.319999999999997e-06,3.4415355100110314e-07
5.166090086881981,5.409102505063519,5.28759629597275,8.410000000000002e-06,2.719068467937722e-07
5.409102505063519,5.663546205781223,5.536324355422371,8.870000000000001e-06,3.014271609084558e-07
5.663546205781223,5.9299589155488235,5.796752560665023,8.899999999999998e-06,3.918439315169609e-07
5.9299589155488235,6.2089036554874255,6.0694312855181245,9.14e-06,2.98635787094134e-07
6.2089036554874255,6.5009699311815945,6.35493679333451,8.51e-06,3.8769618689552944e-07
6.5009699311815945,6.806774978506158,6.653872454843876,8.819999999999999e-06,3.5252659474144873e-07
6.806774978506158,7.1269650680565935,6.966870023281375,8.68e-06,2.3386249521175257e-07
7.1269650680565935,7.462216870939709,7.2945909694981514,8.160000000000001e-06,2.6255158223353487e-07
7.462216870939709,7.8132388888109885,7.637727879875349,8.11e-06,2.850730900430032e-07
7.8132388888109885,8.180772951180769,7.997005919995878,8.05e-06,3.24358340933811e-07
8.180772951180769,8.565595783153572,8.37318436716717,8.159999999999998e-06,3.0952921240706084e-07
8.565595783153572,8.96852064691375,8.76705821503366,8.379999999999998e-06,2.3678400846904567e-07
8.96852064691375,9.39039906042647,9.17945985367011,7.679999999999998e-06,2.767068243948246e-07
9.39039906042647,9.832122596986238,9.611260828706353,8.18e-06,3.039736830714135e-07
9.832122596986238,10.294624769416025,10.063373683201132,7.819999999999998e-06,2.920901687264885e-07
10.294624769416025,10.778883002898993,10.53675388615751,8.099999999999999e-06,2.711856682545511e-07
10.778883002898993,11.285920700611948,11.03240185175547,8.280000000000002e-06,2.403643068344346e-07
11.285920700611948,11.816809406526113,11.55136505356903,8.1e-06,3.181980515339463e-07
11.816809406526113,12.372671069945815,12.094740238235964,7.980000000000002e-06,2.2075627586397772e-07
12.372671069945815,12.954680416570856,12.663675743258334,7.529999999999997e-06,2.2927421718690633e-07
12.954680416570856,13.56406743109347,13.259373923832163,7.979999999999998e-06,3.095426734178474e-07
13.56406743109347,14.202119956576416,13.883093693834944,8.119999999999998e-06,3.3792257495862564e-07
14.202119956576416,14.87018641610557,14.536153186340993,7.779999999999998e-06,2.0982135258357504e-07
14.87018641610557,15.569678662468833,15.219932539287202,7.27e-06,3.0170349683091215e-07
15.569678662468833,16.30207496188367,15.93587681217625,6.929999999999998e-06,3.0121974260219867e-07
16.30207496188367,17.068923118078924,16.685499039981295,7.329999999999999e-06,3.1081881109954363e-07
17.068923118078924,17.871843743333184,17.470383430706054,7.61e-06,2.802825954877213e-07
17.871843743333184,18.71253368338246,18.292188713357824,7.2100000000000004e-06,2.4986663109213453e-07
18.71253368338246,19.592769603435265,19.152651643408863,7.149999999999999e-06,2.1360009363293992e-07
