energy low [eV],energy high [eV],energy mid [eV],mean,std. dev.
0.001,0.001023272492683618,0.0010116362463418091,0.0,0.0
0.001023272492683618,0.0010470865942829462,0.001035179543483282,0.0,0.0
0.0010470865942829462,0.0010714549093875107,0.0010592707518352284,0.0,0.0
0.0010714549093875107,0.0010963903359270583,0.0010839226226572844,0.0,0.0
0.0010963903359270583,0.0011219060719983103,0.0011091482039626843,0.0,0.0
0.0011219060719983103,0.0011480156228505988,0.0011349608474244546,0.0,0.0
0.0011480156228505988,0.0011747328080340689,0.0011613742154423339,0.0,0.0
0.0011747328080340689,0.0012020717687142477,0.0011884022883741582,0.0,0.0
0.0012020717687142477,0.001230046975156834,0.0012160593719355408,0.0,0.0
0.001230046975156834,0.0012586732343866792,0.0012443601047717567,0.0,0.0
0.0012586732343866792,0.0012879656980250092,0.001273319466205844,0.0,0.0
0.0012879656980250092,0.0013179398703090472,0.0013029527841670282,0.0,0.0
0.0013179398703090472,0.0013486116162982633,0.0013332757433036553,0.0,0.0
0.0013486116162982633,0.0013799971702716082,0.0013643043932849356,0.0,0.0
0.0013799971702716082,0.001412113144320168,0.0013960551572958881,0.0,0.0
0.001412113144320168,0.0014449765371398,0.001428544840729984,0.0,0.0
0.0014449765371398,0.0014786047430283874,0.0014617906400840937,0.0,0.0
0.0014786047430283874,0.0015130155610924786,0.001495810152060433,0.0,0.0
0.0015130155610924786,0.0015482272046682035,0.001530621382880341,0.0,0.0
0.0015482272046682035,0.001584258310961423,0.0015662427578148133,0.0,0.0
0.001584258310961423,0.0016211279509122354,0.0016026931309368292,0.0,0.0
0.0016211279509122354,0.0016588556392890493,0.0016399917951006424,0.0,0.0
0.0016588556392890493,0.0016974613450175821,0.0016781584921533158,0.0,0.0
0.0016974613450175821,0.0017369655017502284,0.0017172134233839052,0.0,0.0
0.0017369655017502284,0.0017773890186814094,0.001757177260215819,0.0,0.0
0.0017773890186814094,0.0018187532916146157,0.0017980711551480125,0.0,0.0
0.0018187532916146157,0.0018610802142870232,0.0018399167529508193,0.0,0.0
0.0018610802142870232,0.0019043921899576464,0.0018827362021223348,0.0,0.0
0.0019043921899576464,0.0019487121432651751,0.0019265521666114106,0.0,0.0
0.0019487121432651751,0.0019940635323617917,0.0019713878378134833,0.0,0.0
0.0019940635323617917,0.002040470361329351,0.0020172669468455713,0.0,0.0
0.002040470361329351,0.00208795719288453,0.0020642137771069405,0.0,0.0
0.00208795719288453,0.0021365491613796433,0.0021122531771320865,0.0,0.0
0.0021365491613796433,0.0021862719861060415,0.002161410573742842,0.0,0.0
0.0021862719861060415,0.0022371519849070935,0.0022117119855065677,0.0,0.0
0.0022371519849070935,0.0022892160881079877,0.0022631840365075406,0.0,0.0
0.0022892160881079877,0.0023424918527697016,0.0023158539704388444,0.0,0.0
0.0023424918527697016,0.00239700747727472,0.002369749665022211,0.0,0.0
0.00239700747727472,0.002452791816252176,0.002424899646763448,0.0,0.0
0.002452791816252176,0.002509874395850343,0.0024813331060512594,0.0,0.0
0.002509874395850343,0.0025682854293645704,0.0025390799126074567,0.0,0.0
0.0025682854293645704,0.0026280558332289006,0.0025981706312967357,0.0,0.0
0.0026280558332289006,0.0026892172433798625,0.002658636538304382,0.0,0.0
0.0026892172433798625,0.00275180203200108,0.002720509637690471,0.0,0.0
0.00275180203200108,0.0028158433246575905,0.0027838226783293354,0.0,0.0
0.0028158433246575905,0.002881375017828899,0.0028486091712432446,0.0,0.0
0.002881375017828899,0.0029484317968500855,0.0029149034073394924,0.0,0.0
0.0029484317968500855,0.003017049154270426,0.0029827404755602555,0.0,0.0
0.003017049154270426,0.0030872634086393006,0.003052156281454863,0.0,0.0
0.0030872634086393006,0.003159111723729264,0.003123187566184282,0.0,0.0
0.003159111723729264,0.0032326321282064854,0.0031958719259678747,0.0,0.0
0.0032326321282064854,0.0033078635357589995,0.0032702478319827427,0.0,0.0
0.0033078635357589995,0.003384845765693358,0.003346354650726179,0.0,0.0
0.003384845765693358,0.0034636195640106323,0.003424232664851995,0.0,0.0
0.0034636195640106323,0.00354422662497291,0.003503923094491771,0.0,0.0
0.00354422662497291,0.0036267096131716763,0.0035854681190722933,0.0,0.0
0.0036267096131716763,0.0037111121861098215,0.003668910899640749,0.0,0.0
0.0037111121861098215,0.0037974790173091522,0.003754295601709487,0.0,0.0
0.0037974790173091522,0.003885855819955673,0.0038416674186324126,0.0,0.0
0.003885855819955673,0.003976289371095186,0.003931072595525429,0.0,0.0
0.003976289371095186,0.004068827536391951,0.004022558453743569,0.0,0.0
0.004068827536391951,0.0041635192954635365,0.004116173415927744,0.0,0.0
0.0041635192954635365,0.004260414767805315,0.004211967031634426,0.0,0.0
0.004260414767805315,0.0043595652393182424,0.004309990003561779,0.0,0.0
0.0043595652393182424,0.004461023189454032,0.004410294214386138,0.0,0.0
0.004461023189454032,0.004564842318992056,0.004512932754223044,0.0,0.0
0.004564842318992056,0.004671077578462669,0.004617959948727363,0.0,0.0
0.004671077578462669,0.004779785197232054,0.004725431387847362,0.0,0.0
0.004779785197232054,0.004891022713263908,0.004835403955247982,0.0,0.0
0.004891022713263908,0.005004849003573753,0.0049479358584188305,0.0,0.0
0.005004849003573753,0.005121324315392036,0.005063086659482895,0.0,0.0
0.005121324315392036,0.005240510298052438,0.005180917306722237,0.0,0.0
0.005240510298052438,0.005362470035622289,0.005301490166837364,0.0,0.0
0.005362470035622289,0.00548726808029243,0.00542486905795736,0.0,0.0
0.00548726808029243,0.005614970486544087,0.005551119283418258,0.0,0.0
0.005614970486544087,0.005745644846110915,0.005680307666327501,0.0,0.0
0.005745644846110915,0.0058793603237547055,0.00581250258493281,0.0,0.0
0.0058793603237547055,0.006016187693873642,0.005947774008814174,0.0,0.0
0.006016187693873642,0.006156199377962589,0.006086193535918116,0.0,0.0
0.006156199377962589,0.006299469482945124,0.006227834430453856,0.0,0.0
0.006299469482945124,0.0064460738403976404,0.006372771661671382,0.0,0.0
0.0064460738403976404,0.006596090046686356,0.006521081943541998,0.0,0.0
0.006596090046686356,0.0067495975040383505,0.006672843775362354,0.0,0.0
0.0067495975040383505,0.0069066774625684575,0.006828137483303404,0.0,0.0
0.0069066774625684575,0.007067413063284192,0.006987045262926325,0.0,0.0
0.007067413063284192,0.00723188938209158,0.007149651222687885,0.0,0.0
0.00723188938209158,0.0074001934748250415,0.007316041428458311,0.0,0.0
0.0074001934748250415,0.007572414423325274,0.007486303949075158,0.0,0.0
0.007572414423325274,0.007748643382589435,0.0076605289029573545,0.0,0.0
0.007748643382589435,0.007928973629018714,0.007838808505804075,0.0,0.0
0.007928973629018714,0.008113500609788661,0.008021237119403689,0.0,0.0
0.008113500609788661,0.008302321993368498,0.00820791130157858,0.0,0.0
0.008302321993368498,0.00849553772121621,0.008398929857292355,0.0,0.0
0.00849553772121621,0.008693250060676614,0.008594393890946413,0.0,0.0
0.008693250060676614,0.008895563659110574,0.008794406859893595,0.0,0.0
0.008895563659110574,0.009102585599283893,0.008999074629197234,0.0,0.0
0.009102585599283893,0.009314425456045234,0.009208505527664564,0.0,0.0
0.009314425456045234,0.009531195354323153,0.009422810405184194,0.0,0.0
0.009531195354323153,0.009753010028472784,0.00964210269139797,0.0,0.0
0.009753010028472784,0.00997998688300367,0.009866498455738226,0.0,0.0
0.00997998688300367,0.010212246054720979,0.010096116468862324,0.0,0.0
0.010212246054720979,0.010449910476312786,0.010331078265516883,0.0,0.0
0.010449910476312786,0.010693105941417244,0.010571508208865016,0.0,0.0
0.010693105941417244,0.01094196117120403,0.010817533556310637,0.0,0.0
0.01094196117120403,0.011196607882505314,0.011069284526854673,0.0,0.0
0.011196607882505314,0.011457180857532261,0.011326894370018787,0.0,0.0
0.011457180857532261,0.011723818015214075,0.011590499436373167,0.0,0.0
0.011723818015214075,0.011996660484197215,0.011860239249705645,0.0,0.0
0.011996660484197215,0.012275852677543551,0.012136256580870383,0.0,0.0
0.012275852677543551,0.012561542369166857,0.012418697523355204,0.0,0.0
0.012561542369166857,0.012853880772048258,0.012707711570607558,0.0,0.0
0.012853880772048258,0.01315302261827185,0.013003451695160054,0.0,0.0
0.01315302261827185,0.013459126240923052,0.013306074429597452,0.0,0.0
0.013459126240923052,0.013772353657892826,0.01361573994940794,0.0,0.0
0.013772353657892826,0.014092870657632347,0.013932612157762586,0.0,0.0
0.014092870657632347,0.014420846886903278,0.014256858772267813,0.0,0.0
0.014420846886903278,0.014756455940570313,0.014588651413736796,0.0,0.0
0.014756455940570313,0.015099875453483375,0.014928165697026843,0.0,0.0
0.015099875453483375,0.015451287194498111,0.015275581323990744,0.0,0.0
0.015451287194498111,0.015810877162684558,0.015631082178591334,0.0,0.0
0.015810877162684558,0.01617883568577472,0.01599485642422964,0.0,0.0
0.01617883568577472,0.01655535752090138,0.01636709660333805,0.0,0.0
0.01655535752090138,0.01694064195768124,0.016747999739291308,0.0,0.0
0.01694064195768124,0.01733489292369718,0.01713776744068921,0.0,0.0
0.01733489292369718,0.017738319092435225,0.017536606008066204,0.0,0.0
0.017738319092435225,0.018151133993733616,0.01794472654308442,0.0,0.0
0.018151133993733616,0.018573556126802154,0.018362345060267883,0.0,0.0
0.018573556126802154,0.019005809075871936,0.018789682601337045,0.0,0.0
0.019005809075871936,0.019448121628536416,0.019226965352204174,0.0,0.0
0.019448121628536416,0.019900727896846646,0.01967442476269153,0.0,0.0
0.019900727896846646,0.020363867441224696,0.02013229766903567,0.0,0.0
0.020363867441224696,0.020837785397260767,0.020600826419242733,0.0,0.0
0.020837785397260767,0.02132273260546133,0.021080259001361047,0.0,0.0
0.02132273260546133,0.021818965744016674,0.021570849174739004,0.0,0.0
0.021818965744016674,0.022326747464658427,0.02207285660433755,0.0,0.0
0.022326747464658427,0.02284634653167868,0.022586546998168554,0.0,0.0
0.02284634653167868,0.023378037964184587,0.023112192247931634,0.0,0.0
0.023378037964184587,0.02392210318166342,0.023650070572924002,0.0,0.0
0.02392210318166342,0.024478830152935453,0.024200466667299435,0.0,0.0
0.024478830152935453,0.025048513548573174,0.024763671850754315,0.0,0.0
0.025048513548573174,0.025631454896867863,0.02533998422272052,0.0,0.0
0.025631454896867863,0.02622796274342572,0.025929708820146793,0.0,0.0
0.02622796274342572,0.026838352814478304,0.026533157778952012,0.0,0.0
0.026838352814478304,0.027462948183993627,0.027150650499235963,0.0,0.0
0.027462948183993627,0.0281020794446762,0.027782513814334914,0.0,0.0
0.0281020794446762,0.028756084882946897,0.02842908216381155,0.0,0.0
0.028756084882946897,0.02942531065799478,0.02909069777047084,0.0,0.0
0.02942531065799478,0.03011011098499617,0.029767710821495475,0.0,0.0
0.03011011098499617,0.030810848322597423,0.030460479653796797,0.0,0.0
0.030810848322597423,0.031527893564761156,0.03116937094367929,0.0,0.0
0.031527893564761156,0.03226162623707695,0.031894759900919056,0.0,0.0
0.03226162623707695,0.03301243469764096,0.032637030467358955,0.0,0.0
0.03301243469764096,0.03378071634261023,0.03339657552012559,0.0,0.0
0.03378071634261023,0.03456687781654102,0.03417379707957562,0.0,0.0
0.03456687781654102,0.03537133522762201,0.03496910652208152,0.0,0.0
0.03537133522762201,0.036194514367916646,0.03578292479776933,0.0,0.0
0.036194514367916646,0.03703685093873112,0.03661568265332388,0.0,0.0
0.03703685093873112,0.03789879078122699,0.03746782085997905,0.0,0.0
0.03789879078122699,0.03878079011240109,0.03833979044681404,0.0,0.0
0.03878079011240109,0.03968331576655687,0.039232052939478984,0.0,0.0
0.03968331576655687,0.040606845442395796,0.04014508060447633,0.0,0.0
0.040606845442395796,0.04155186795585876,0.04107935669912728,0.0,0.0
0.04155186795585876,0.04251888349885217,0.04203537572735547,0.0,0.0
0.04251888349885217,0.04350840390399482,0.04301364370142349,0.0,0.0
0.04350840390399482,0.04452095291552646,0.044014678409760644,0.0,0.0
0.04452095291552646,0.04555706646652076,0.04503900969102361,0.0,0.0
0.04555706646652076,0.04661729296254999,0.046087179714535374,0.0,0.0
0.04661729296254999,0.04770219357195104,0.04715974326725052,0.0,0.0
0.04770219357195104,0.0488123425228468,0.048257268047398924,0.0,0.0
0.0488123425228468,0.049948327407080044,0.04938033496496343,0.0,0.0
0.049948327407080044,0.05111074949122028,0.05052953844915016,0.0,0.0
0.05111074949122028,0.05230022403480896,0.05170548676301462,0.0,0.0
0.05230022403480896,0.05351738061601064,0.0529088023254098,0.0,0.0
0.05351738061601064,0.05476286346484318,0.05414012204042691,0.0,0.0
0.05476286346484318,0.056037331804162725,0.05540009763450295,0.0,0.0
0.056037331804162725,0.05734146019858461,0.05668939600137367,0.0,0.0
0.05734146019858461,0.058675938911524145,0.058008699555054374,0.0,0.0
0.058675938911524145,0.06004147427054705,0.05935870659103559,0.0,0.0
0.06004147427054705,0.061438789041222,0.06074013165588452,0.0,0.0
0.061438789041222,0.06286862280967423,0.06215370592544811,0.0,0.0
0.06286862280967423,0.06433173237404155,0.06360017759185789,0.0,0.0
0.06433173237404155,0.06582889214504091,0.06508031225954122,0.0,0.0
0.06582889214504091,0.06736089455585709,0.06659489335044899,0.0,0.0
0.06736089455585709,0.06892855048157025,0.06814472251871367,0.0,0.0
0.06892855048157025,0.07053268966834503,0.06973062007495764,0.0,0.0
0.07053268966834503,0.07217416117260748,0.07135342542047626,0.0,0.0
0.07217416117260748,0.0738538338104433,0.0730139974915254,0.0,0.0
0.0738538338104433,0.075572596617454,0.07471321521394865,0.0,0.0
0.075572596617454,0.07733135931931576,0.07645197796838488,0.0,0.0
0.07733135931931576,0.07913105281328878,0.07823120606630227,0.0,0.0
0.07913105281328878,0.08097262966093308,0.08005184123711093,0.0,0.0
0.08097262966093308,0.0828570645922905,0.08191484712661179,0.0,0.0
0.0828570645922905,0.08478535502180065,0.08382120980704558,0.0,0.0
0.08478535502180065,0.08675852157622352,0.08577193829901208,0.0,0.0
0.08675852157622352,0.08877760863484771,0.08776806510553561,0.0,0.0
0.08877760863484771,0.09084368488227136,0.08981064675855954,0.0,0.0
0.09084368488227136,0.09295784387404693,0.09190076437815914,0.0,0.0
0.09295784387404693,0.09512120461549065,0.09403952424476879,0.0,0.0
0.09512120461549065,0.09733491215396159,0.09622805838472612,0.0,0.0
0.09733491215396159,0.09960013818492532,0.09846752516944346,0.0,0.0
0.09960013818492532,0.10191808167212135,0.10075910992852333,0.0,0.0
0.10191808167212135,0.10428996948216418,0.10310402557714277,0.0,0.0
0.10428996948216418,0.10671705703391271,0.10550351325803844,0.0,0.0
0.10671705703391271,0.1092006289629517,0.1079588429984322,0.0,0.0
0.1092006289629517,0.11174199980153848,0.11047131438224508,0.0,0.0
0.11174199980153848,0.11434251467437277,0.11304225723795563,0.0,0.0
0.11434251467437277,0.11700355001055861,0.11567303234246569,0.0,0.0
0.11700355001055861,0.11972651427213667,0.11836503214134764,0.0,0.0
0.11972651427213667,0.12251284869957008,0.12111968148585336,0.0,0.0
0.12251284869957008,0.12536402807458016,0.12393843838707512,0.0,0.0
0.12536402807458016,0.12828156150073472,0.12682279478765746,0.0,0.0
0.12828156150073472,0.13126699320220367,0.12977427735146918,0.0,0.0
0.13126699320220367,0.1343219033411025,0.1327944482716531,0.0,0.0
0.1343219033411025,0.1374479088538581,0.1358849060974803,0.0,0.0
0.1374479088538581,0.14064666430703812,0.13904728658044813,0.0,0.0
0.14064666430703812,0.14391986277309896,0.14228326354006854,0.0,0.0
0.14391986277309896,0.14726923672651324,0.1455945497498061,0.0,0.0
0.14726923672651324,0.15069655896075318,0.14898289784363322,0.0,0.0
0.15069655896075318,0.15420364352661373,0.15245010124368347,0.0,0.0
0.15420364352661373,0.1577923466923741,0.15599799510949391,0.0,0.0
0.1577923466923741,0.16146456792630348,0.15962845730933878,0.0,0.0
0.16146456792630348,0.16522225090203194,0.1633434094141677,0.0,0.0
0.16522225090203194,0.1690673845273204,0.16714481771467615,0.0,0.0
0.1690673845273204,0.1730020039967709,0.17103469426204565,0.0,0.0
0.1730020039967709,0.1770281918690372,0.17501509793290404,0.0,0.0
0.1770281918690372,0.1811480791691035,0.17908813551907035,0.0,0.0
0.1811480791691035,0.18536384651621796,0.1832559628426607,0.0,0.0
0.18536384651621796,0.18967772527807394,0.18752078589714594,0.0,0.0
0.18967772527807394,0.19409199875185343,0.1918848620149637,0.0,0.0
0.19409199875185343,0.19860900337275475,0.1963505010623041,0.0,0.0
0.19860900337275475,0.20323112995064788,0.2009200666617013,0.0,0.0
0.20323112995064788,0.20796082493550797,0.20559597744307792,0.0,0.0
0.20796082493550797,0.21280059171229876,0.21038070832390338,0.0,0.0
0.21280059171229876,0.21775299192599284,0.2152767918191458,0.0,0.0
0.21775299192599284,0.22282064683742647,0.22028681938170966,0.0,0.0
0.22282064683742647,0.22800623871070977,0.2254134427740681,0.0,0.0
0.22800623871070977,0.23331251223292404,0.23065937547181692,0.0,0.0
0.23331251223292404,0.23874227596686132,0.23602739409989268,0.0,0.0
0.23874227596686132,0.24429840383757043,0.24152033990221589,0.0,0.0
0.24429840383757043,0.24998383665350013,0.24714112024553528,0.0,0.0
0.24998383665350013,0.2558015836630415,0.2528927101582708,0.0,0.0
0.2558015836630415,0.26175472414729756,0.25877815390516956,0.0,0.0
0.26175472414729756,0.267846409049918,0.2648005665986078,0.0,0.0
0.267846409049918,0.2740798626448659,0.27096313584739196,0.0,0.0
0.2740798626448659,0.2804583842429956,0.27726912344393073,0.0,0.0
0.2804583842429956,0.28698534993835007,0.2837218670906728,0.0,0.0
0.28698534993835007,0.29366421439509616,0.2903247821667231,0.0,0.0
0.29366421439509616,0.3004985126760465,0.29708136353557135,0.0,0.0
0.3004985126760465,0.3074918621137379,0.3039951873948922,0.0,0.0
0.3074918621137379,0.314647964225052,0.3110699131693949,1.0000000000000001e-07,1.0000000000000001e-07
0.314647964225052,0.3219706066703952,0.3183092854477236,0.0,0.0
0.3219706066703952,0.32946366525847204,0.32571713596443364,0.0,0.0
0.32946366525847204,0.33713110599771784,0.33329738562809497,0.0,0.0
0.33713110599771784,0.34497698719546976,0.3410540465965938,0.0,0.0
0.34497698719546976,0.35300546160599333,0.34899122440073155,0.0,0.0
0.35300546160599333,0.36122077862849605,0.3571131201172447,2.0000000000000002e-07,1.384437310486346e-07
0.36122077862849605,0.36962728655629856,0.3654240325923973,0.0,0.0
0.36962728655629856,0.378229434878346,0.3739283607173223,0.0,0.0
0.378229434878346,0.3870317766342813,0.38263060575631364,1.0000000000000001e-07,1.0000000000000001e-07
0.3870317766342813,0.3960389708243303,0.3915353737293058,0.0,0.0
0.3960389708243303,0.4052557848752672,0.40064737784979876,0.0,0.0
0.4052557848752672,0.4146870971637712,0.4099714410195192,3.0000000000000004e-07,1.6583123951777e-07
0.4146870971637712,0.4243378995985059,0.4195124983811386,1.0000000000000001e-07,1.0000000000000001e-07
0.4243378995985059,0.434213300262294,0.42927559993039993,0.0,0.0
0.434213300262294,0.4443185261157779,0.43926591318903596,0.0,0.0
0.4443185261157779,0.4546589257640038,0.44948872593989087,0.0,0.0
0.4546589257640038,0.4652399722873882,0.459949449025696,0.0,0.0
0.4652399722873882,0.47606726613857314,0.47065361921298066,1.0000000000000001e-07,1.0000000000000001e-07
0.47606726613857314,0.48714653810669367,0.4816069021226334,0.0,0.0
0.48714653810669367,0.4984836523506316,0.4928150952286626,1.0000000000000001e-07,1.0000000000000001e-07
0.4984836523506316,0.5100846095028648,0.5042841309267482,1.0000000000000001e-07,1.0000000000000001e-07
0.5100846095028648,0.5219555498455465,0.5160200796742056,0.0,0.0
0.5219555498455465,0.5341027565605014,0.5280291532030239,1.0000000000000001e-07,1.0000000000000001e-07
0.5341027565605014,0.5465326590548559,0.5403177078076786,0.0,0.0
0.5465326590548559,0.5592518363640684,0.5528922477094622,0.0,0.0
0.5592518363640684,0.5722670206341511,0.5657594284991098,0.0,0.0
0.5722670206341511,0.585585100684936,0.5789260606595436,0.0,0.0
0.585585100684936,0.599213125656262,0.592399113170599,1.0000000000000001e-07,1.0000000000000001e-07
0.599213125656262,0.6131583087390252,0.6061857171976436,1.0000000000000001e-07,1.0000000000000001e-07
0.6131583087390252,0.6274280309930538,0.6202931698660394,0.0,0.0
0.6274280309930538,0.6420298452538372,0.6347289381234456,0.0,0.0
