energy low [eV],energy high [eV],energy mid [eV],mean,std. dev.
0.001,0.0010470399110535467,0.0010235199555267732,0.0,0.0
0.0010470399110535467,0.0010962925753390188,0.0010716662431962828,0.0,0.0
0.0010962925753390188,0.0011478620805716298,0.0011220773279553243,0.0,0.0
0.0011478620805716298,0.001201857410743458,0.0011748597456575438,0.0,0.0
0.001201857410743458,0.0012583926764438763,0.0012301250435936672,0.0,0.0
0.0012583926764438763,0.0013175873560142307,0.0012879900162290534,0.0,0.0
0.0013175873560142307,0.0013795665480464177,0.0013485769520303241,0.0,0.0
0.0013795665480464177,0.0014444612357589696,0.0014120138919026938,0.0,0.0
0.0014444612357589696,0.0015124085638093675,0.0014784348997841684,0.0,0.0
0.0015124085638093675,0.0015835521281275823,0.0015479803459684748,0.0,0.0
0.0015835521281275823,0.0016580422793833582,0.0016207972037554702,0.0,0.0
0.0016580422793833582,0.0017360364407285694,0.0016970393600559638,1e-08,1e-08
0.0017360364407285694,0.0018176994404861568,0.001776867940607363,0.0,0.0
0.0018176994404861568,0.001903203860488707,0.0018604516504874319,1e-08,1e-08
0.001903203860488707,0.0019927304008028625,0.0019479671306457847,1e-08,1e-08
0.0019927304008028625,0.0020864682616103273,0.0020395993312065947,2e-08,1.3844373104863458e-08
0.0020864682616103273,0.0021846155430525253,0.002135541902331426,2e-08,1.3844373104863458e-08
0.0021846155430525253,0.0022873796638839114,0.002235997603468218,1e-08,1e-08
0.0022873796638839114,0.0023949777998187017,0.0023411787318513063,4e-08,1.8708286933869706e-08
0.0023949777998187017,0.0025076373424973925,0.002451307571158047,0.0,0.0
0.0025076373424973925,0.002625596380043022,0.002566616861270207,0.0,0.0
0.002625596380043022,0.0027491042002227594,0.0026873502901328906,2e-08,1.3844373104863458e-08
0.0027491042002227594,0.0028784218172781696,0.0028137630087504643,6e-08,2.179449471770337e-08
0.0028784218172781696,0.0030138225235375226,0.002946122170407846,1e-08,1e-08
0.0030138225235375226,0.003155592466975903,0.0030847074952567127,4e-08,1.8708286933869706e-08
0.003155592466975903,0.003304031255943691,0.0032298118614597967,2e-08,1.3844373104863458e-08
0.003304031255943691,0.0034594525923414203,0.0033817419241425556,4e-08,1.8708286933869706e-08
0.0034594525923414203,0.0036221849345791216,0.003540818763460271,2e-08,1.3844373104863458e-08
0.0036221849345791216,0.00379257219172122,0.003707378563150171,6.999999999999999e-08,3.391164991562634e-08
0.00379257219172122,0.003970974450283936,0.0038817733210025785,1.0000000000000001e-07,3.535533905932738e-08
0.003970974450283936,0.004157768735221199,0.004064371592752568,1.6000000000000003e-07,4.3011626335213125e-08
0.004157768735221199,0.004353349806707221,0.00425555927096421,1.5000000000000002e-07,3.535533905932737e-08
0.004353349806707221,0.004558130994399704,0.0044557404005534625,1.0000000000000001e-07,3.227486121839514e-08
0.004558130994399704,0.0047725450709466795,0.004665338032673192,1.7000000000000004e-07,3.452052529534662e-08
0.0047725450709466795,0.004997045166583053,0.004884795118764867,1.6000000000000003e-07,4.051748593714405e-08
0.004997045166583053,0.005232105726749675,0.005114575446666364,2.2000000000000004e-07,5.0662280511902195e-08
0.005232105726749675,0.005478223514758732,0.005355164620754204,2.3000000000000002e-07,4.9833054625753515e-08
0.005478223514758732,0.00573591866162443,0.005607071088191581,2.7000000000000006e-07,5.3851648071345034e-08
0.00573591866162443,0.0060057357652776215,0.005870827213451026,3.0000000000000004e-07,4.330127018922194e-08
0.0060057357652776215,0.006288245041487384,0.0061469904033825025,3.100000000000001e-07,5.454356057317857e-08
0.006288245041487384,0.006584043528921856,0.00643614428520462,3.2000000000000006e-07,5.6862407030773287e-08
0.006584043528921856,0.00689375635089502,0.006738899939908438,4.9e-07,6.994045086119096e-08
0.00689375635089502,0.0072180380364659435,0.007055897193680482,5.7e-07,6.849574196011503e-08
0.0072180380364659435,0.007557573903682418,0.007387805970074181,5.9e-07,8.276472678623424e-08
0.007557573903682418,0.007913081507892243,0.00773532770578733,6.400000000000001e-07,7.783529619223746e-08
0.007913081507892243,0.00828531215818296,0.0080991968330376,7.499999999999999e-07,1.0507933510765411e-07
0.00828531215818296,0.008675052505154754,0.008480182331668857,9.899999999999998e-07,9.945685831890474e-08
0.008675052505154754,0.00908312620338208,0.008879089354268416,9.000000000000001e-07,9.128709291752765e-08
0.00908312620338208,0.009510395652077312,0.009296760927729696,1.1399999999999999e-06,1.2672147936846913e-07
0.009510395652077312,0.009957763817635065,0.00973407973485619,1.17e-06,1.0677078252031307e-07
0.009957763817635065,0.010426176141908838,0.010191969979771951,1.5499999999999998e-06,1.391941090707508e-07
0.010426176141908838,0.01091662254025284,0.010671399341080839,1.93e-06,1.4326548781894398e-07
0.01091662254025284,0.011430139493551475,0.011173381016902156,2.0199999999999997e-06,1.4136241839093368e-07
0.011430139493551475,0.011967812238657767,0.01169897586610462,2.4699999999999992e-06,1.7219175357722597e-07
0.011967812238657767,0.012530777061869775,0.01224929465026377,2.8199999999999997e-06,2.3252240035460417e-07
0.012530777061869775,0.01312022370029195,0.012825500381080861,3.2199999999999997e-06,1.6540354691884163e-07
0.01312022370029195,0.013737397856156318,0.013428810778224134,3.179999999999999e-06,1.4471235837573374e-07
0.013737397856156318,0.014383603829417092,0.014060500842786705,3.94e-06,1.9000000000000022e-07
0.014383603829417092,0.015060207274182318,0.014721905551799705,4.1000000000000006e-06,2.0463381929681065e-07
0.015060207274182318,0.01576863808480783,0.015414422679495074,4.830000000000001e-06,2.1971572542719727e-07
0.01576863808480783,0.016510393417752758,0.016139515751280295,6.449999999999999e-06,2.8867513459481284e-07
0.016510393417752758,0.017287040855582907,0.01689871713666783,6.6e-06,1.3540064007726608e-07
0.017287040855582907,0.018100221719808556,0.01769363128769573,7.630000000000001e-06,2.578436218589342e-07
0.018100221719808556,0.01895165453955782,0.018525938129683187,8.38e-06,2.7046256672597007e-07
0.01895165453955782,0.019843138683416164,0.01939739661148699,1.0679999999999998e-05,3.4141860913937957e-07
0.019843138683416164,0.020776558162107252,0.020309848422761706,1.116e-05,2.985660172669797e-07
0.020776558162107252,0.021753885610051614,0.021265221886079433,1.2569999999999998e-05,3.395830777095179e-07
0.021753885610051614,0.02277718645421747,0.02226553603213454,1.425e-05,3.467107343785778e-07
0.02277718645421747,0.023848623279073906,0.023312904866645688,1.5839999999999997e-05,4.0770700263793007e-07
0.023848623279073906,0.02497046039687107,0.02440954183797249,1.771e-05,3.9202465908834093e-07
0.02497046039687107,0.026145068632905992,0.02555776451488853,1.979e-05,4.212283624512139e-07
0.026145068632905992,0.02737493033588676,0.026759999484396377,2.295e-05,5.724581498531885e-07
0.02737493033588676,0.02866264462398391,0.028018787479935338,2.4759999999999993e-05,5.177032612092283e-07
0.02866264462398391,0.03001093287765553,0.02933678875081972,2.751e-05,4.4311398082209136e-07
0.03001093287765553,0.031422644490854405,0.030716788684254967,3.0699999999999994e-05,5.406400527769651e-07
0.031422644490854405,0.03290076289277141,0.03216170369181291,3.439e-05,3.323151115031175e-07
0.03290076289277141,0.034448411852841206,0.033674587372806306,3.867999999999999e-05,6.627782434570615e-07
0.034448411852841206,0.0360688620823348,0.035258636967588006,4.176e-05,7.206016005163068e-07
0.0360688620823348,0.03776553814649047,0.03691720011441263,4.768e-05,6.31552320345156e-07
0.03776553814649047,0.039542025701790676,0.03865378192414057,5.207000000000001e-05,6.397460433640659e-07
0.039542025701790676,0.041402079073679966,0.040472052387735324,5.7480000000000005e-05,7.681037256343088e-07
0.041402079073679966,0.04334962919073777,0.04237585413220887,6.385000000000001e-05,5.702704036974549e-07
0.04334962919073777,0.04538879189207431,0.04436921054140604,6.899999999999998e-05,8.504900548115391e-07
0.04538879189207431,0.04752387662550542,0.046456334258789866,7.630999999999999e-05,9.972127823756137e-07
0.04752387662550542,0.04975939555488892,0.04864163609019717,8.535000000000001e-05,6.053580207887243e-07
0.04975939555488892,0.052100073095869136,0.05092973432537903,9.333000000000002e-05,9.146629616056317e-07
0.052100073095869136,0.05455085590018209,0.05332546449802561,0.00010161000000000001,1.0604715932073988e-06
0.05455085590018209,0.057116923309621495,0.05583388960490179,0.00011198999999999999,9.677594398058528e-07
0.057116923309621495,0.059803698301758336,0.05846031080568992,0.00011958,1.0486817121192253e-06
0.059803698301758336,0.06261685895054618,0.06121027862615226,0.00013109,1.1524322105877288e-06
0.06261685895054618,0.06556235042603231,0.06408960468828925,0.00014199,1.208432179865113e-06
0.06556235042603231,0.06864639755853433,0.06710437399228332,0.00015446999999999995,1.1692518975826266e-06
0.06864639755853433,0.07187551799383418,0.07026095777618425,0.00016596,1.2557102903669001e-06
0.07187551799383418,0.07525653596719173,0.07356602698051296,0.00017939999999999994,1.4143608686143054e-06
0.07525653596719173,0.07879659672528647,0.0770265663462391,0.00019445999999999992,1.0787415507591504e-06
0.07879659672528647,0.08250318162656611,0.08064988917592629,0.00020603,1.1097409607649553e-06
0.08250318162656611,0.08638412395191439,0.08444365278924025,0.0002221199999999999,1.3751605966824834e-06
0.08638412395191439,0.090447625459051,0.08841587470548269,0.00023923999999999994,1.1742444379263017e-06
0.090447625459051,0.09470227371564925,0.09257494958735013,0.00024947,1.3875427921329461e-06
0.09470227371564925,0.099157060247802,0.09692966698172563,0.00026880999999999997,1.6403937535445262e-06
0.099157060247802,0.10382139954218973,0.10148922989499587,0.00028568,1.5480848383297047e-06
0.10382139954218973,0.10870514894210906,0.1062632742421494,0.00029864,1.7997152552556077e-06
0.10870514894210906,0.1138186294794084,0.11126188921075873,0.00031667,1.8135899021919282e-06
0.1138186294794084,0.11917264768635635,0.11649563858288238,0.00033135,1.8879552431133691e-06
0.11917264768635635,0.1247785184335382,0.12197558305994727,0.00034442,1.7686341245907182e-06
0.1247785184335382,0.13064808884204515,0.12771330363779168,0.00035549,2.112388064095403e-06
0.13064808884204515,0.1367937633204908,0.13372092608126798,0.0003742799999999999,1.8721823273035772e-06
0.1367937633204908,0.1432285297797666,0.1400111465501287,0.00038591999999999994,1.9553196669603233e-06
0.1432285297797666,0.14996598708093709,0.14659725843035185,0.00039699,1.8845025868909162e-06
0.14996598708093709,0.15702037377428169,0.1534931804276094,0.00040727999999999994,1.4184292956178016e-06
0.15702037377428169,0.16440659819021855,0.1607134859822501,0.00041783000000000006,2.0600222490698297e-06
0.16440659819021855,0.1721402699457026,0.16827343406796058,0.00042262999999999996,2.2510238411296453e-06
0.1721402699457026,0.18023773293268194,0.17618900143919228,0.00043156,2.14000973518029e-06
0.18023773293268194,0.1887160998583282,0.18447691639550506,0.00043280000000000006,1.8761663039283074e-06
0.1887160998583282,0.19759328841003618,0.19315469413418218,0.00043728,2.006153035039396e-06
0.19759328841003618,0.20688805912162206,0.2022406737658291,0.0004335000000000001,2.2215328791910235e-06
0.20688805912162206,0.21662005502074405,0.21175405707118305,0.00042892000000000006,2.1647132219603984e-06
0.21662005502074405,0.226809843141334,0.22171494908103903,0.00042568,2.4944738924268963e-06
0.226809843141334,0.2374789579887712,0.2321444005650526,0.0004166399999999999,2.282089685647106e-06
0.2374789579887712,0.24864994704965193,0.24306445251921155,0.00040878999999999997,2.2793310422141275e-06
0.24864994704965193,0.26034641844233664,0.2544981827459943,0.00039412999999999997,1.426250912941693e-06
0.26034641844233664,0.2725930908089736,0.26646975462565514,0.0003807,1.988822934970856e-06
0.2725930908089736,0.28541584555443905,0.2790044681817063,0.0003687699999999999,1.8570765555935752e-06
0.28541584555443905,0.29884178154259267,0.29212881354851583,0.00034735999999999995,1.8163654184482742e-06
0.29884178154259267,0.31289927236543963,0.3058705269540162,0.00032921,2.225031834978473e-06
0.31289927236543963,0.3276180263062294,0.3202586493358345,0.00031103,1.2592424971649896e-06
0.3276180263062294,0.34302914912321286,0.33532358771472115,0.00028710000000000004,1.6770509831243135e-06
0.34302914912321286,0.3591652097867426,0.35109717945497776,0.00027001,1.948208578840162e-06
0.3591652097867426,0.3760603093086394,0.367612759547691,0.00024803,1.6375998697280846e-06
0.3760603093086394,0.393750152809287,0.3849052310589632,0.00022762999999999996,1.396283758171575e-06
0.393750152809287,0.41227212497475624,0.4030111388920216,0.00021002999999999994,1.620462896829501e-06
0.41227212497475624,0.4316653690634254,0.4219687470190908,0.00019055,1.2599603168353418e-06
0.4316653690634254,0.4519708696290653,0.4418181193462454,0.00017395,1.5375169375761268e-06
0.4519708696290653,0.47323153913521065,0.462601204382138,0.0001555,1.4884975646603281e-06
0.47323153913521065,0.49549230864386395,0.4843619238895373,0.00014165,9.6090235369323e-07
0.49549230864386395,0.5188002227701878,0.5071462657070258,0.00012565,8.691470915021371e-07
0.5188002227701878,0.5432045391038576,0.5310023809370227,0.00011342,1.049178249869884e-06
0.5432045391038576,0.5687568323071858,0.5559806857055216,0.00010324999999999999,1.0103629710819404e-06
0.5687568323071858,0.5955111031100121,0.5821339677085989,9.192999999999998e-05,1.030121352074607e-06
0.5955111031100121,0.6235238924317065,0.6095174977708593,8.484999999999998e-05,9.159466869493854e-07
0.6235238924317065,0.6528544008714552,0.6381891466515808,7.796e-05,1.0098143393713234e-06
0.6528544008714552,0.6835646138193648,0.66820950734541,7.265999999999999e-05,9.489994731294922e-07
0.6835646138193648,0.7157194324527797,0.6996420231360723,6.767000000000001e-05,8.754427451295589e-07
0.7157194324527797,0.7493868108946533,0.7325531216737164,6.235e-05,7.399324293474319e-07
0.7493868108946533,0.7846378998238388,0.7670123553592461,6.07e-05,6.57805695728878e-07
0.7846378998238388,0.8215471968407938,0.8030925483323164,5.9700000000000015e-05,5.886071128802807e-07
0.8215471968407938,0.8601927039064753,0.8408699503736345,5.584000000000001e-05,9.899368666737983e-07
0.8601927039064753,0.9006560921871456,0.8804243980468105,5.494e-05,6.151354864309763e-07
0.9006560921871456,0.9430228746534638,0.9218394834203048,5.419e-05,8.0483952851898e-07
0.9430228746534638,0.9873825867986226,0.9652027307260431,5.2770000000000005e-05,8.024597601541406e-07
0.9873825867986226,1.0338289758574506,1.0106057813280365,5.298999999999999e-05,6.605679374599129e-07
1.0338289758574506,1.0824601989263642,1.0581445873919075,5.236e-05,7.559596550081345e-07
1.0824601989263642,1.1333790304028648,1.1079196146646146,5.188e-05,6.166306295776463e-07
1.1333790304028648,1.1866930791829704,1.1600360547929176,5.135999999999999e-05,5.900353096779027e-07
1.1866930791829704,1.2425150160755967,1.2146040476292836,5.222e-05,6.901569869723229e-07
1.2425150160755967,1.3009628119144887,1.2717389139950428,5.2510000000000004e-05,8.229114978740459e-07
1.3009628119144887,1.3621599868709182,1.3315613993927036,5.1540000000000005e-05,6.464131805586529e-07
1.3621599868709182,1.4262358714940264,1.3941979291824724,5.162000000000001e-05,6.80857302719604e-07
1.4262358714940264,1.493325880030483,1.4597808757622546,5.205000000000001e-05,6.753085714446478e-07
1.493325880030483,1.5635717966010745,1.5284488383157786,5.302e-05,7.759295500666701e-07
1.5635717966010745,1.6371220748390232,1.6003469357200488,5.107e-05,5.955599605973368e-07
1.6371220748390232,1.7141321516232484,1.6756271132311358,5.216e-05,8.089190317949226e-07
1.7141321516232484,1.7947647755696305,1.7544484635964395,5.281999999999999e-05,6.854925236645812e-07
1.7947647755696305,1.8791903509744645,1.8369775632720475,5.1899999999999994e-05,6.980627956471258e-07
1.8791903509744645,1.9675872979369864,1.9233888244557256,5.2489999999999994e-05,6.913874938604895e-07
1.9675872979369864,2.0601424294220303,2.0138648636795082,5.2899999999999985e-05,6.811448695640347e-07
2.0601424294220303,2.15705134605968,2.1085968877408554,5.1330000000000005e-05,5.971669225043277e-07
2.15705134605968,2.2585188495162605,2.20778509778797,5.1389999999999994e-05,7.277362159464152e-07
2.2585188495162605,2.3647593753102636,2.3116391124132623,5.218e-05,7.643788327786142e-07
2.3647593753102636,2.4759974459878986,2.4203784106490813,5.1199999999999984e-05,7.231297716639214e-07
2.4759974459878986,2.592468145615978,2.5342327958019384,5.223999999999999e-05,7.033372827693657e-07
2.592468145615978,2.7144176165949068,2.6534428811054425,5.351e-05,9.350222813744423e-07
2.7144176165949068,2.842103579841711,2.778260598218309,5.255000000000001e-05,5.580845216750501e-07
2.842103579841711,2.9757958794424315,2.908949729642071,5.2689999999999985e-05,7.743653315242983e-07
2.9757958794424315,3.1157770529249142,3.0457864661836727,5.235999999999999e-05,7.655444685538289e-07
3.1157770529249142,3.2623429283571834,3.1890599906410486,5.246999999999999e-05,6.679134175425367e-07
3.2623429283571834,3.415803249533272,3.339073088945228,5.152e-05,6.099726769836821e-07
3.415803249533272,3.5764823305677327,3.496142790050502,5.2010000000000005e-05,7.439310003846486e-07
3.5764823305677327,3.74471974128222,3.6606010359249765,5.2619999999999994e-05,8.309281958548993e-07
3.74471974128222,3.920871024832596,3.832795383057408,5.3179999999999996e-05,6.351705807628869e-07
3.920871024832596,4.105308449093149,4.013089736962873,5.344999999999999e-05,7.888546549692799e-07
4.105308449093149,4.2984217933858595,4.201865121239504,5.2060000000000006e-05,6.958627738282527e-07
4.2984217933858595,4.500619172217357,4.399520482801608,5.390000000000001e-05,6.672393373694861e-07
4.500619172217357,4.712327897764348,4.606473534990853,5.308e-05,8.548537886679877e-07
4.712327897764348,4.93399538293033,4.8231616403473385,5.299e-05,6.660643112092398e-07
4.93399538293033,5.166090086881981,5.050042734906155,5.1319999999999997e-05,5.268855030586043e-07
5.166090086881981,5.409102505063519,5.28759629597275,5.300000000000001e-05,8.161137584103106e-07
5.409102505063519,5.663546205781223,5.536324355422371,5.317999999999999e-05,7.117349693999338e-07
5.663546205781223,5.9299589155488235,5.796752560665023,5.190000000000001e-05,8.753570700005693e-07
5.9299589155488235,6.2089036554874255,6.0694312855181245,5.197000000000001e-05,7.419456404166528e-07
6.2089036554874255,6.5009699311815945,6.35493679333451,5.083e-05,6.009922351134731e-07
6.5009699311815945,6.806774978506158,6.653872454843876,3.87e-05,6.000000000000029e-07
6.806774978506158,7.1269650680565935,6.966870023281375,6.588e-05,1.005310897185549e-06
7.1269650680565935,7.462216870939709,7.2945909694981514,6.97e-05,7.216878364869877e-07
7.462216870939709,7.8132388888109885,7.637727879875349,7.002999999999999e-05,9.018869108707789e-07
7.8132388888109885,8.180772951180769,7.997005919995878,7.065e-05,9.972879891652622e-07
8.180772951180769,8.565595783153572,8.37318436716717,6.961e-05,7.825013312022575e-07
8.565595783153572,8.96852064691375,8.76705821503366,7.104999999999998e-05,9.364160400164598e-07
8.96852064691375,9.39039906042647,9.17945985367011,7.115999999999998e-05,5.020541139493289e-07
9.39039906042647,9.832122596986238,9.611260828706353,6.923000000000001e-05,7.89635992087448e-07
9.832122596986238,10.294624769416025,10.063373683201132,6.987999999999999e-05,6.233511583904607e-07
10.294624769416025,10.778883002898993,10.53675388615751,6.988000000000002e-05,9.622153258669474e-07
10.778883002898993,11.285920700611948,11.03240185175547,6.959e-05,8.454387421135995e-07
11.285920700611948,11.816809406526113,11.55136505356903,7.122e-05,6.660392881304338e-07
11.816809406526113,12.372671069945815,12.094740238235964,7.031999999999998e-05,8.034457044506191e-07
12.372671069945815,12.954680416570856,12.663675743258334,6.971000000000001e-05,8.419570456185092e-07
12.954680416570856,13.56406743109347,13.259373923832163,7.116e-05,7.794068257334631e-07
