energy low [eV],energy high [eV],energy mid [eV],mean,std. dev.
0.001,0.0010470399110535467,0.0010235199555267732,0.0,0.0
0.0010470399110535467,0.0010962925753390188,0.0010716662431962828,0.0,0.0
0.0010962925753390188,0.0011478620805716298,0.0011220773279553243,0.0,0.0
0.0011478620805716298,0.001201857410743458,0.0011748597456575438,0.0,0.0
0.001201857410743458,0.0012583926764438763,0.0012301250435936672,0.0,0.0
0.0012583926764438763,0.0013175873560142307,0.0012879900162290534,0.0,0.0
0.0013175873560142307,0.0013795665480464177,0.0013485769520303241,0.0,0.0
0.0013795665480464177,0.0014444612357589696,0.0014120138919026938,0.0,0.0
0.0014444612357589696,0.0015124085638093675,0.0014784348997841684,0.0,0.0
0.0015124085638093675,0.0015835521281275823,0.0015479803459684748,0.0,0.0
0.0015835521281275823,0.0016580422793833582,0.0016207972037554702,0.0,0.0
0.0016580422793833582,0.0017360364407285694,0.0016970393600559638,0.0,0.0
0.0017360364407285694,0.0018176994404861568,0.001776867940607363,0.0,0.0
0.0018176994404861568,0.001903203860488707,0.0018604516504874319,0.0,0.0
0.001903203860488707,0.0019927304008028625,0.0019479671306457847,0.0,0.0
0.0019927304008028625,0.0020864682616103273,0.0020395993312065947,0.0,0.0
0.0020864682616103273,0.0021846155430525253,0.002135541902331426,0.0,0.0
0.0021846155430525253,0.0022873796638839114,0.002235997603468218,0.0,0.0
0.0022873796638839114,0.0023949777998187017,0.0023411787318513063,0.0,0.0
0.0023949777998187017,0.0025076373424973925,0.002451307571158047,0.0,0.0
0.0025076373424973925,0.002625596380043022,0.002566616861270207,0.0,0.0
0.002625596380043022,0.0027491042002227594,0.0026873502901328906,0.0,0.0
0.0027491042002227594,0.0028784218172781696,0.0028137630087504643,0.0,0.0
0.0028784218172781696,0.0030138225235375226,0.002946122170407846,0.0,0.0
0.0030138225235375226,0.003155592466975903,0.0030847074952567127,0.0,0.0
0.003155592466975903,0.003304031255943691,0.0032298118614597967,0.0,0.0
0.003304031255943691,0.0034594525923414203,0.0033817419241425556,0.0,0.0
0.0034594525923414203,0.0036221849345791216,0.003540818763460271,0.0,0.0
0.0036221849345791216,0.00379257219172122,0.003707378563150171,0.0,0.0
0.00379257219172122,0.003970974450283936,0.0038817733210025785,0.0,0.0
0.003970974450283936,0.004157768735221199,0.004064371592752568,0.0,0.0
0.004157768735221199,0.004353349806707221,0.00425555927096421,0.0,0.0
0.004353349806707221,0.004558130994399704,0.0044557404005534625,0.0,0.0
0.004558130994399704,0.0047725450709466795,0.004665338032673192,0.0,0.0
0.0047725450709466795,0.004997045166583053,0.004884795118764867,0.0,0.0
0.004997045166583053,0.005232105726749675,0.005114575446666364,0.0,0.0
0.005232105726749675,0.005478223514758732,0.005355164620754204,0.0,0.0
0.005478223514758732,0.00573591866162443,0.005607071088191581,0.0,0.0
0.00573591866162443,0.0060057357652776215,0.005870827213451026,0.0,0.0
0.0060057357652776215,0.006288245041487384,0.0061469904033825025,0.0,0.0
0.006288245041487384,0.006584043528921856,0.00643614428520462,0.0,0.0
0.006584043528921856,0.00689375635089502,0.006738899939908438,0.0,0.0
0.00689375635089502,0.0072180380364659435,0.007055897193680482,0.0,0.0
0.0072180380364659435,0.007557573903682418,0.007387805970074181,0.0,0.0
0.007557573903682418,0.007913081507892243,0.00773532770578733,0.0,0.0
0.007913081507892243,0.00828531215818296,0.0080991968330376,0.0,0.0
0.00828531215818296,0.008675052505154754,0.008480182331668857,0.0,0.0
0.008675052505154754,0.00908312620338208,0.008879089354268416,0.0,0.0
0.00908312620338208,0.009510395652077312,0.009296760927729696,0.0,0.0
0.009510395652077312,0.009957763817635065,0.00973407973485619,0.0,0.0
0.009957763817635065,0.010426176141908838,0.010191969979771951,0.0,0.0
0.010426176141908838,0.01091662254025284,0.010671399341080839,0.0,0.0
0.01091662254025284,0.011430139493551475,0.011173381016902156,0.0,0.0
0.011430139493551475,0.011967812238657767,0.01169897586610462,0.0,0.0
0.011967812238657767,0.012530777061869775,0.01224929465026377,0.0,0.0
0.012530777061869775,0.01312022370029195,0.012825500381080861,0.0,0.0
0.01312022370029195,0.013737397856156318,0.013428810778224134,0.0,0.0
0.013737397856156318,0.014383603829417092,0.014060500842786705,0.0,0.0
0.014383603829417092,0.015060207274182318,0.014721905551799705,0.0,0.0
0.015060207274182318,0.01576863808480783,0.015414422679495074,0.0,0.0
0.01576863808480783,0.016510393417752758,0.016139515751280295,0.0,0.0
0.016510393417752758,0.017287040855582907,0.01689871713666783,0.0,0.0
0.017287040855582907,0.018100221719808556,0.01769363128769573,0.0,0.0
0.018100221719808556,0.01895165453955782,0.018525938129683187,0.0,0.0
0.01895165453955782,0.019843138683416164,0.01939739661148699,0.0,0.0
0.019843138683416164,0.020776558162107252,0.020309848422761706,0.0,0.0
0.020776558162107252,0.021753885610051614,0.021265221886079433,0.0,0.0
0.021753885610051614,0.02277718645421747,0.02226553603213454,0.0,0.0
0.02277718645421747,0.023848623279073906,0.023312904866645688,0.0,0.0
0.023848623279073906,0.02497046039687107,0.02440954183797249,0.0,0.0
0.02497046039687107,0.026145068632905992,0.02555776451488853,0.0,0.0
0.026145068632905992,0.02737493033588676,0.026759999484396377,0.0,0.0
0.02737493033588676,0.02866264462398391,0.028018787479935338,0.0,0.0
0.02866264462398391,0.03001093287765553,0.02933678875081972,0.0,0.0
0.03001093287765553,0.031422644490854405,0.030716788684254967,0.0,0.0
0.031422644490854405,0.03290076289277141,0.03216170369181291,0.0,0.0
0.03290076289277141,0.034448411852841206,0.033674587372806306,0.0,0.0
0.034448411852841206,0.0360688620823348,0.035258636967588006,0.0,0.0
0.0360688620823348,0.03776553814649047,0.03691720011441263,0.0,0.0
0.03776553814649047,0.039542025701790676,0.03865378192414057,0.0,0.0
0.039542025701790676,0.041402079073679966,0.040472052387735324,0.0,0.0
0.041402079073679966,0.04334962919073777,0.04237585413220887,0.0,0.0
0.04334962919073777,0.04538879189207431,0.04436921054140604,0.0,0.0
0.04538879189207431,0.04752387662550542,0.046456334258789866,0.0,0.0
0.04752387662550542,0.04975939555488892,0.04864163609019717,0.0,0.0
0.04975939555488892,0.052100073095869136,0.05092973432537903,0.0,0.0
0.052100073095869136,0.05455085590018209,0.05332546449802561,0.0,0.0
0.05455085590018209,0.057116923309621495,0.05583388960490179,0.0,0.0
0.057116923309621495,0.059803698301758336,0.05846031080568992,0.0,0.0
0.059803698301758336,0.06261685895054618,0.06121027862615226,0.0,0.0
0.06261685895054618,0.06556235042603231,0.06408960468828925,0.0,0.0
0.06556235042603231,0.06864639755853433,0.06710437399228332,0.0,0.0
0.06864639755853433,0.07187551799383418,0.07026095777618425,0.0,0.0
0.07187551799383418,0.07525653596719173,0.07356602698051296,0.0,0.0
0.07525653596719173,0.07879659672528647,0.0770265663462391,0.0,0.0
0.07879659672528647,0.08250318162656611,0.08064988917592629,0.0,0.0
0.08250318162656611,0.08638412395191439,0.08444365278924025,0.0,0.0
0.08638412395191439,0.090447625459051,0.08841587470548269,0.0,0.0
0.090447625459051,0.09470227371564925,0.09257494958735013,0.0,0.0
0.09470227371564925,0.099157060247802,0.09692966698172563,0.0,0.0
0.099157060247802,0.10382139954218973,0.10148922989499587,0.0,0.0
0.10382139954218973,0.10870514894210906,0.1062632742421494,0.0,0.0
0.10870514894210906,0.1138186294794084,0.11126188921075873,0.0,0.0
0.1138186294794084,0.11917264768635635,0.11649563858288238,0.0,0.0
0.11917264768635635,0.1247785184335382,0.12197558305994727,0.0,0.0
0.1247785184335382,0.13064808884204515,0.12771330363779168,0.0,0.0
0.13064808884204515,0.1367937633204908,0.13372092608126798,0.0,0.0
0.1367937633204908,0.1432285297797666,0.1400111465501287,0.0,0.0
0.1432285297797666,0.14996598708093709,0.14659725843035185,0.0,0.0
0.14996598708093709,0.15702037377428169,0.1534931804276094,0.0,0.0
0.15702037377428169,0.16440659819021855,0.1607134859822501,0.0,0.0
0.16440659819021855,0.1721402699457026,0.16827343406796058,0.0,0.0
0.1721402699457026,0.18023773293268194,0.17618900143919228,0.0,0.0
0.18023773293268194,0.1887160998583282,0.18447691639550506,0.0,0.0
0.1887160998583282,0.19759328841003618,0.19315469413418218,0.0,0.0
0.19759328841003618,0.20688805912162206,0.2022406737658291,0.0,0.0
0.20688805912162206,0.21662005502074405,0.21175405707118305,0.0,0.0
0.21662005502074405,0.226809843141334,0.22171494908103903,0.0,0.0
0.226809843141334,0.2374789579887712,0.2321444005650526,0.0,0.0
0.2374789579887712,0.24864994704965193,0.24306445251921155,0.0,0.0
0.24864994704965193,0.26034641844233664,0.2544981827459943,0.0,0.0
0.26034641844233664,0.2725930908089736,0.26646975462565514,0.0,0.0
0.2725930908089736,0.28541584555443905,0.2790044681817063,0.0,0.0
0.28541584555443905,0.29884178154259267,0.29212881354851583,0.0,0.0
0.29884178154259267,0.31289927236543963,0.3058705269540162,0.0,0.0
0.31289927236543963,0.3276180263062294,0.3202586493358345,0.0,0.0
0.3276180263062294,0.34302914912321286,0.33532358771472115,0.0,0.0
0.34302914912321286,0.3591652097867426,0.35109717945497776,0.0,0.0
0.3591652097867426,0.3760603093086394,0.367612759547691,0.0,0.0
0.3760603093086394,0.393750152809287,0.3849052310589632,0.0,0.0
0.393750152809287,0.41227212497475624,0.4030111388920216,0.0,0.0
0.41227212497475624,0.4316653690634254,0.4219687470190908,0.0,0.0
0.4316653690634254,0.4519708696290653,0.4418181193462454,0.0,0.0
0.4519708696290653,0.47323153913521065,0.462601204382138,0.0,0.0
0.47323153913521065,0.49549230864386395,0.4843619238895373,0.0,0.0
0.49549230864386395,0.5188002227701878,0.5071462657070258,0.0,0.0
0.5188002227701878,0.5432045391038576,0.5310023809370227,0.0,0.0
0.5432045391038576,0.5687568323071858,0.5559806857055216,0.0,0.0
0.5687568323071858,0.5955111031100121,0.5821339677085989,1e-08,1e-08
0.5955111031100121,0.6235238924317065,0.6095174977708593,0.0,0.0
0.6235238924317065,0.6528544008714552,0.6381891466515808,0.0,0.0
0.6528544008714552,0.6835646138193648,0.66820950734541,1e-08,1e-08
0.6835646138193648,0.7157194324527797,0.6996420231360723,0.0,0.0
0.7157194324527797,0.7493868108946533,0.7325531216737164,0.0,0.0
0.7493868108946533,0.7846378998238388,0.7670123553592461,0.0,0.0
0.7846378998238388,0.8215471968407938,0.8030925483323164,0.0,0.0
0.8215471968407938,0.8601927039064753,0.8408699503736345,0.0,0.0
0.8601927039064753,0.9006560921871456,0.8804243980468105,1e-08,1e-08
0.9006560921871456,0.9430228746534638,0.9218394834203048,1e-08,1e-08
0.9430228746534638,0.9873825867986226,0.9652027307260431,0.0,0.0
0.9873825867986226,1.0338289758574506,1.0106057813280365,0.0,0.0
1.0338289758574506,1.0824601989263642,1.0581445873919075,1e-08,1e-08
1.0824601989263642,1.1333790304028648,1.1079196146646146,0.0,0.0
1.1333790304028648,1.1866930791829704,1.1600360547929176,0.0,0.0
1.1866930791829704,1.2425150160755967,1.2146040476292836,0.0,0.0
1.2425150160755967,1.3009628119144887,1.2717389139950428,1e-08,1e-08
1.3009628119144887,1.3621599868709182,1.3315613993927036,5e-08,2.886751345948129e-08
1.3621599868709182,1.4262358714940264,1.3941979291824724,3.0000000000000004e-08,2.19848432637882e-08
1.4262358714940264,1.493325880030483,1.4597808757622546,2e-08,1.3844373104863458e-08
1.493325880030483,1.5635717966010745,1.5284488383157786,3.0000000000000004e-08,1.6583123951776998e-08
1.5635717966010745,1.6371220748390232,1.6003469357200488,3.0000000000000004e-08,2.19848432637882e-08
1.6371220748390232,1.7141321516232484,1.6756271132311358,2e-08,1.4142135623730952e-08
1.7141321516232484,1.7947647755696305,1.7544484635964395,5e-08,2.0412414523193148e-08
1.7947647755696305,1.8791903509744645,1.8369775632720475,2e-08,1.3844373104863458e-08
1.8791903509744645,1.9675872979369864,1.9233888244557256,5e-08,2.0412414523193148e-08
1.9675872979369864,2.0601424294220303,2.0138648636795082,3.0000000000000004e-08,1.6583123951776998e-08
2.0601424294220303,2.15705134605968,2.1085968877408554,3.0000000000000004e-08,1.6583123951776998e-08
2.15705134605968,2.2585188495162605,2.20778509778797,6e-08,2.6140645235596872e-08
2.2585188495162605,2.3647593753102636,2.3116391124132623,1e-07,3.34165627596057e-08
2.3647593753102636,2.4759974459878986,2.4203784106490813,6e-08,2.179449471770337e-08
2.4759974459878986,2.592468145615978,2.5342327958019384,9e-08,2.8431203515386633e-08
2.592468145615978,2.7144176165949068,2.6534428811054425,1.04564104e-07,2.8567992205546215e-08
2.7144176165949068,2.842103579841711,2.778260598218309,1.3e-07,2.9297326385411577e-08
2.842103579841711,2.9757958794424315,2.908949729642071,1.0999999999999999e-07,3.559026084010437e-08
2.9757958794424315,3.1157770529249142,3.0457864661836727,1.2000000000000002e-07,3.570714214271425e-08
3.1157770529249142,3.2623429283571834,3.1890599906410486,1.3e-07,4.112987559751022e-08
3.2623429283571834,3.415803249533272,3.339073088945228,9e-08,2.8431203515386633e-08
3.415803249533272,3.5764823305677327,3.496142790050502,1.8e-07,4.609772228646444e-08
3.5764823305677327,3.74471974128222,3.6606010359249765,2e-07,5.773502691896258e-08
3.74471974128222,3.920871024832596,3.832795383057408,2.2000000000000004e-07,5.267826876426369e-08
3.920871024832596,4.105308449093149,4.013089736962873,1.8e-07,4.453463071962463e-08
4.105308449093149,4.2984217933858595,4.201865121239504,2.1e-07,5.0414944874180585e-08
4.2984217933858595,4.500619172217357,4.399520482801608,4.2291461893499477e-07,5.658478643422551e-08
4.500619172217357,4.712327897764348,4.606473534990853,3.8178940304925156e-07,4.066283030796718e-08
4.712327897764348,4.93399538293033,4.8231616403473385,5.08389336e-07,7.096113893195975e-08
4.93399538293033,5.166090086881981,5.050042734906155,5.55168008e-07,8.83357296125658e-08
5.166090086881981,5.409102505063519,5.28759629597275,4.6999999999999995e-07,8.077747210701756e-08
5.409102505063519,5.663546205781223,5.536324355422371,5.9e-07,8.976822006330149e-08
5.663546205781223,5.9299589155488235,5.796752560665023,6.4e-07,8.548879068821437e-08
5.9299589155488235,6.2089036554874255,6.0694312855181245,7.775762530333079e-07,9.84053943435428e-08
6.2089036554874255,6.5009699311815945,6.35493679333451,7.682314924562328e-07,9.76899203055902e-08
6.5009699311815945,6.806774978506158,6.653872454843876,8.169268420733017e-07,8.86362814570827e-08
6.806774978506158,7.1269650680565935,6.966870023281375,9.836923119999996e-07,9.478731881412776e-08
7.1269650680565935,7.462216870939709,7.2945909694981514,8.599999999999999e-07,8.592632503100164e-08
7.462216870939709,7.8132388888109885,7.637727879875349,1.1175175439999998e-06,1.011658274075646e-07
7.8132388888109885,8.180772951180769,7.997005919995878,1.3167786720000002e-06,1.2237991468033095e-07
8.180772951180769,8.565595783153572,8.37318436716717,1.6205306689247921e-06,1.3409229741141378e-07
8.565595783153572,8.96852064691375,8.76705821503366,1.7091282080000001e-06,1.0896586038848168e-07
8.96852064691375,9.39039906042647,9.17945985367011,1.674564104e-06,1.627073887033289e-07
9.39039906042647,9.832122596986238,9.611260828706353,1.7729534400000005e-06,1.559156663723824e-07
9.832122596986238,10.294624769416025,10.063373683201132,2.044564104e-06,1.3155292815183861e-07
10.294624769416025,10.778883002898993,10.53675388615751,2.3100000000000003e-06,1.7327723451163453e-07
10.778883002898993,11.285920700611948,11.03240185175547,1.9635948363534635e-06,1.6081589271841214e-07
11.285920700611948,11.816809406526113,11.55136505356903,2.4683893360000002e-06,1.6695948558014744e-07
11.816809406526113,12.372671069945815,12.094740238235964,2.571418116939975e-06,1.998294583957508e-07
12.372671069945815,12.954680416570856,12.663675743258334,2.5964502388495124e-06,1.2886500124254284e-07
12.954680416570856,13.56406743109347,13.259373923832163,2.709321121122558e-06,1.7787293066775017e-07
13.56406743109347,14.202119956576416,13.883093693834944,2.8054958891225588e-06,1.6566723167932774e-07
14.202119956576416,14.87018641610557,14.536153186340993,2.9981255235031584e-06,1.613405761665927e-07
14.87018641610557,15.569678662468833,15.219932539287202,3.2086988390934455e-06,1.590569477029e-07
15.569678662468833,16.30207496188367,15.93587681217625,3.2283205769044188e-06,1.638039801819767e-07
16.30207496188367,17.068923118078924,16.685499039981295,3.1526450945033353e-06,1.4932122818070066e-07
17.068923118078924,17.871843743333184,17.470383430706054,3.2991282079999997e-06,1.6612672507316662e-07
17.871843743333184,18.71253368338246,18.292188713357824,2.4019535243582873e-06,1.4837265617920813e-07
18.71253368338246,19.592769603435265,19.152651643408863,1.4e-06,1.1317390747576636e-07
19.592769603435265,20.51441174287349,20.05359067315438,4.362001566195791e-06,2.0479585446308618e-07
20.51441174287349,21.479407846574095,20.99690979472379,3.860885065355857e-06,1.9897651232434578e-07
21.479407846574095,22.48979728115979,21.984602563866943,7.295571545631957e-06,3.5759501755087534e-07
22.48979728115979,23.54771534487784,23.018756313018816,8.218177992499991e-06,3.1721927799356086e-07
23.54771534487784,24.65539778021513,24.101556562546484,8.50493682538012e-06,2.633809674395644e-07
24.65539778021513,25.81518549878626,25.235291639500694,9.727416919119146e-06,3.089222710178783e-07
25.81518549878626,27.029529528479973,26.422357513633116,8.95403981379385e-06,2.655116671585875e-07
27.029529528479973,28.30099619331888,27.665262860899425,1.0721239056764108e-05,3.077731499696339e-07
28.30099619331888,29.632272536979364,28.966634365149122,1.1659697007180064e-05,3.8633714242744005e-07
29.632272536979364,31.026172001433324,30.329222269206344,1.2473166629576142e-05,3.8835744836720337e-07
31.026172001433324,32.48564037271279,31.755906187073055,1.3715911463373076e-05,4.3617223342980635e-07
32.48564037271279,34.0137620063627,33.249701189537745,1.346514761375098e-05,3.4932056427358454e-07
34.0137620063627,35.613766345738505,34.8137641760506,1.4438376172655142e-05,3.435164739379871e-07
35.613766345738505,37.28903474692383,36.45140054633117,1.4337622619632167e-05,3.538237303849659e-07
37.28903474692383,39.043107624691736,38.16607118580778,1.5653979082223174e-05,4.2233269030563957e-07
39.043107624691736,40.87969193461129,39.961399779651515,1.5675199648587083e-05,4.167878929973104e-07
40.87969193461129,42.80266900711179,41.84118047086154,1.6605279819089755e-05,3.5478957944146486e-07
42.80266900711179,44.81610275006072,43.809385878586255,1.764020461080164e-05,4.225707265040937e-07
44.81610275006072,46.924248237190184,45.87017549362545,1.6535770930609823e-05,5.158666341167608e-07
46.924248237190184,49.13156070052205,48.02790446885612,1.920645425958199e-05,4.6159207316584883e-07
49.13156070052205,51.442704945796535,50.2871328231593,2.153700162954328e-05,5.115673558855061e-07
51.442704945796535,53.862565210800646,52.65263507829859,2.164371369602263e-05,4.401907832340607e-07
53.862565210800646,56.39625548743256,55.129410349116604,2.372343635211772e-05,4.2702127398633205e-07
56.39625548743256,59.04913032931448,57.72269290837352,2.4747031288399618e-05,3.021367767491477e-07
59.04913032931448,61.82679616779471,60.437963248554595,2.523119968570722e-05,3.90442932988231e-07
61.82679616779471,64.73512316025354,63.280959664024124,2.551389672109123e-05,5.387146869434284e-07
64.73512316025354,67.78025759575225,66.25769037800289,2.637095823240891e-05,4.6311042660919746e-07
67.78025759575225,70.9686348842429,69.37444623999758,2.8639090178377513e-05,5.574290020957254e-07
70.9686348842429,74.30699315678932,72.63781402051612,2.925950395789312e-05,5.183376158603619e-07
74.30699315678932,77.80238750554118,76.05469033116525,2.8700186037600045e-05,6.160257312892628e-07
77.80238750554118,81.46220489355541,79.63229619954829,3.1221482802596315e-05,5.634350270174684e-07
81.46220489355541,85.29417976597404,83.37819232976472,3.1529411187961416e-05,5.368495002255618e-07
85.29417976597404,89.30641039555067,87.30029508076235,3.28447689252909e-05,5.067325605163666e-07
89.30641039555067,93.5073759970689,91.4068931963098,3.362940969465756e-05,6.258631428298635e-07
93.5073759970689,97.90595464682157,95.70666532194524,3.451083491499894e-05,6.946424198529099e-07
97.90595464682157,102.51144204502063,100.2086983459211,3.5400399488127786e-05,7.115639592004624e-07
