energy low [eV],energy high [eV],energy mid [eV],mean,std. dev.
0.001,0.0010470399110535467,0.0010235199555267732,0.0,0.0
0.0010470399110535467,0.0010962925753390188,0.0010716662431962828,0.0,0.0
0.0010962925753390188,0.0011478620805716298,0.0011220773279553243,1e-08,1e-08
0.0011478620805716298,0.001201857410743458,0.0011748597456575438,0.0,0.0
0.001201857410743458,0.0012583926764438763,0.0012301250435936672,0.0,0.0
0.0012583926764438763,0.0013175873560142307,0.0012879900162290534,0.0,0.0
0.0013175873560142307,0.0013795665480464177,0.0013485769520303241,0.0,0.0
0.0013795665480464177,0.0014444612357589696,0.0014120138919026938,0.0,0.0
0.0014444612357589696,0.0015124085638093675,0.0014784348997841684,0.0,0.0
0.0015124085638093675,0.0015835521281275823,0.0015479803459684748,0.0,0.0
0.0015835521281275823,0.0016580422793833582,0.0016207972037554702,1e-08,1e-08
0.0016580422793833582,0.0017360364407285694,0.0016970393600559638,0.0,0.0
0.0017360364407285694,0.0018176994404861568,0.001776867940607363,0.0,0.0
0.0018176994404861568,0.001903203860488707,0.0018604516504874319,0.0,0.0
0.001903203860488707,0.0019927304008028625,0.0019479671306457847,1e-08,1e-08
0.0019927304008028625,0.0020864682616103273,0.0020395993312065947,1e-08,1e-08
0.0020864682616103273,0.0021846155430525253,0.002135541902331426,1e-08,1e-08
0.0021846155430525253,0.0022873796638839114,0.002235997603468218,1e-08,1e-08
0.0022873796638839114,0.0023949777998187017,0.0023411787318513063,1e-08,1e-08
0.0023949777998187017,0.0025076373424973925,0.002451307571158047,0.0,0.0
0.0025076373424973925,0.002625596380043022,0.002566616861270207,0.0,0.0
0.002625596380043022,0.0027491042002227594,0.0026873502901328906,1e-08,1e-08
0.0027491042002227594,0.0028784218172781696,0.0028137630087504643,1e-08,1e-08
0.0028784218172781696,0.0030138225235375226,0.002946122170407846,1e-08,1e-08
0.0030138225235375226,0.003155592466975903,0.0030847074952567127,2e-08,1.3844373104863458e-08
0.003155592466975903,0.003304031255943691,0.0032298118614597967,3.0000000000000004e-08,2.19848432637882e-08
0.003304031255943691,0.0034594525923414203,0.0033817419241425556,3.0000000000000004e-08,1.6583123951776998e-08
0.0034594525923414203,0.0036221849345791216,0.003540818763460271,1e-08,1e-08
0.0036221849345791216,0.00379257219172122,0.003707378563150171,0.0,0.0
0.00379257219172122,0.003970974450283936,0.0038817733210025785,4e-08,1.8708286933869706e-08
0.003970974450283936,0.004157768735221199,0.004064371592752568,6e-08,2.179449471770337e-08
0.004157768735221199,0.004353349806707221,0.00425555927096421,0.0,0.0
0.004353349806707221,0.004558130994399704,0.0044557404005534625,6.999999999999999e-08,2.2912878474779198e-08
0.004558130994399704,0.0047725450709466795,0.004665338032673192,4e-08,1.8708286933869706e-08
0.0047725450709466795,0.004997045166583053,0.004884795118764867,5e-08,2.5e-08
0.004997045166583053,0.005232105726749675,0.005114575446666364,4e-08,1.8708286933869706e-08
0.005232105726749675,0.005478223514758732,0.005355164620754204,1.1000000000000002e-07,2.5331140255951098e-08
0.005478223514758732,0.00573591866162443,0.005607071088191581,4e-08,1.8708286933869706e-08
0.00573591866162443,0.0060057357652776215,0.005870827213451026,1.7000000000000004e-07,4.5e-08
0.0060057357652776215,0.006288245041487384,0.0061469904033825025,1.4000000000000004e-07,3.253203549323855e-08
0.006288245041487384,0.006584043528921856,0.00643614428520462,1.2000000000000002e-07,2.929732638541157e-08
0.006584043528921856,0.00689375635089502,0.006738899939908438,1.9000000000000003e-07,3.894440481849306e-08
0.00689375635089502,0.0072180380364659435,0.007055897193680482,1.4e-07,3.840572873934304e-08
0.0072180380364659435,0.007557573903682418,0.007387805970074181,1.9000000000000003e-07,4.627814458971607e-08
0.007557573903682418,0.007913081507892243,0.00773532770578733,1.9e-07,4.153311931459038e-08
0.007913081507892243,0.00828531215818296,0.0080991968330376,2.900000000000001e-07,6.06904715201104e-08
0.00828531215818296,0.008675052505154754,0.008480182331668857,3.1e-07,5.82380173655205e-08
0.008675052505154754,0.00908312620338208,0.008879089354268416,3.5000000000000004e-07,5.590169943749472e-08
0.00908312620338208,0.009510395652077312,0.009296760927729696,4.5e-07,4.999999999999999e-08
0.009510395652077312,0.009957763817635065,0.00973407973485619,5e-07,7.359800721939872e-08
0.009957763817635065,0.010426176141908838,0.010191969979771951,5.4e-07,7.023769168568487e-08
0.010426176141908838,0.01091662254025284,0.010671399341080839,7.2e-07,8.455767262643884e-08
0.01091662254025284,0.011430139493551475,0.011173381016902156,6.6e-07,8.524474568362953e-08
0.011430139493551475,0.011967812238657767,0.01169897586610462,9.2e-07,9.970790674097348e-08
0.011967812238657767,0.012530777061869775,0.01224929465026377,8.599999999999999e-07,9.797958971132718e-08
0.012530777061869775,0.01312022370029195,0.012825500381080861,1.3000000000000003e-06,1.25e-07
0.01312022370029195,0.013737397856156318,0.013428810778224134,1.33e-06,1.1430952132988175e-07
0.013737397856156318,0.014383603829417092,0.014060500842786705,1.43e-06,1.3111699610144613e-07
0.014383603829417092,0.015060207274182318,0.014721905551799705,1.6e-06,1.1456439237389617e-07
0.015060207274182318,0.01576863808480783,0.015414422679495074,1.96e-06,1.511621645783099e-07
0.01576863808480783,0.016510393417752758,0.016139515751280295,2.3000000000000004e-06,1.7078251276599318e-07
0.016510393417752758,0.017287040855582907,0.01689871713666783,2.6699999999999994e-06,1.69386146619689e-07
0.017287040855582907,0.018100221719808556,0.01769363128769573,2.8699999999999996e-06,1.608052652537641e-07
0.018100221719808556,0.01895165453955782,0.018525938129683187,3.38e-06,2.0161845153655992e-07
0.01895165453955782,0.019843138683416164,0.01939739661148699,3.729999999999999e-06,2.2216735433752134e-07
0.019843138683416164,0.020776558162107252,0.020309848422761706,4.2e-06,1.96850196850296e-07
0.020776558162107252,0.021753885610051614,0.021265221886079433,5.1899999999999994e-06,2.390432317943077e-07
0.021753885610051614,0.02277718645421747,0.02226553603213454,5.11e-06,2.0416496597931208e-07
0.02277718645421747,0.023848623279073906,0.023312904866645688,5.699999999999999e-06,2.7537852736430657e-07
0.023848623279073906,0.02497046039687107,0.02440954183797249,6.739999999999999e-06,2.447277398797836e-07
0.02497046039687107,0.026145068632905992,0.02555776451488853,7.79e-06,1.9508545136255869e-07
0.026145068632905992,0.02737493033588676,0.026759999484396377,8.75e-06,3.1688588903052706e-07
0.02737493033588676,0.02866264462398391,0.028018787479935338,9.9e-06,3.024207885270675e-07
0.02866264462398391,0.03001093287765553,0.02933678875081972,1.0870000000000001e-05,3.335790760824177e-07
0.03001093287765553,0.031422644490854405,0.030716788684254967,1.2029999999999998e-05,3.3612993519372015e-07
0.031422644490854405,0.03290076289277141,0.03216170369181291,1.3569999999999999e-05,3.4324432503199287e-07
0.03290076289277141,0.034448411852841206,0.033674587372806306,1.4650000000000002e-05,3.452052529534619e-07
0.034448411852841206,0.0360688620823348,0.035258636967588006,1.6559999999999997e-05,3.9244957213210266e-07
0.0360688620823348,0.03776553814649047,0.03691720011441263,1.748e-05,3.081936620589934e-07
0.03776553814649047,0.039542025701790676,0.03865378192414057,2.0309999999999997e-05,3.860267693653779e-07
0.039542025701790676,0.041402079073679966,0.040472052387735324,2.291e-05,6.44993540019325e-07
0.041402079073679966,0.04334962919073777,0.04237585413220887,2.505e-05,5.018714974971249e-07
0.04334962919073777,0.04538879189207431,0.04436921054140604,2.7080000000000005e-05,4.490081662211963e-07
0.04538879189207431,0.04752387662550542,0.046456334258789866,2.9400000000000003e-05,5.896679856778102e-07
0.04752387662550542,0.04975939555488892,0.04864163609019717,3.347999999999999e-05,5.55637771694263e-07
0.04975939555488892,0.052100073095869136,0.05092973432537903,3.634e-05,6.94754153160179e-07
0.052100073095869136,0.05455085590018209,0.05332546449802561,4.038000000000001e-05,4.852233162850313e-07
0.05455085590018209,0.057116923309621495,0.05583388960490179,4.260000000000002e-05,7.981750016965316e-07
0.057116923309621495,0.059803698301758336,0.05846031080568992,4.803e-05,6.415021434102836e-07
0.059803698301758336,0.06261685895054618,0.06121027862615226,5.171999999999999e-05,6.524505089787961e-07
0.06261685895054618,0.06556235042603231,0.06408960468828925,5.579e-05,6.174004643125214e-07
0.06556235042603231,0.06864639755853433,0.06710437399228332,6.0589999999999994e-05,7.510936470685315e-07
0.06864639755853433,0.07187551799383418,0.07026095777618425,6.544e-05,1.017787633382636e-06
0.07187551799383418,0.07525653596719173,0.07356602698051296,7.104999999999998e-05,6.327848502191079e-07
0.07525653596719173,0.07879659672528647,0.0770265663462391,7.727000000000001e-05,1.0359094233248544e-06
0.07879659672528647,0.08250318162656611,0.08064988917592629,8.206999999999999e-05,7.776192298719804e-07
0.08250318162656611,0.08638412395191439,0.08444365278924025,8.719e-05,7.595612768785237e-07
0.08638412395191439,0.090447625459051,0.08841587470548269,9.524000000000002e-05,1.3214953651072166e-06
0.090447625459051,0.09470227371564925,0.09257494958735013,0.00010101000000000001,9.016743684205406e-07
0.09470227371564925,0.099157060247802,0.09692966698172563,0.00010748,9.984279309661058e-07
0.099157060247802,0.10382139954218973,0.10148922989499587,0.00011315999999999998,8.62515700340284e-07
0.10382139954218973,0.10870514894210906,0.1062632742421494,0.00012194,9.456347074848467e-07
0.10870514894210906,0.1138186294794084,0.11126188921075873,0.00012376999999999996,1.1372408129622946e-06
0.1138186294794084,0.11917264768635635,0.11649563858288238,0.00013427000000000003,1.1796821605837565e-06
0.11917264768635635,0.1247785184335382,0.12197558305994727,0.00014034,1.4160449616214145e-06
0.1247785184335382,0.13064808884204515,0.12771330363779168,0.00014701,1.2790360953988542e-06
0.13064808884204515,0.1367937633204908,0.13372092608126798,0.00015281,1.29222676028624e-06
0.1367937633204908,0.1432285297797666,0.1400111465501287,0.00015967,1.2639818036664996e-06
0.1432285297797666,0.14996598708093709,0.14659725843035185,0.00016138,9.710518352109578e-07
0.14996598708093709,0.15702037377428169,0.1534931804276094,0.00016758000000000002,1.1653611743430766e-06
0.15702037377428169,0.16440659819021855,0.1607134859822501,0.00017238,1.3836937281542234e-06
0.16440659819021855,0.1721402699457026,0.16827343406796058,0.00017576999999999998,1.3752969376344613e-06
0.1721402699457026,0.18023773293268194,0.17618900143919228,0.00017841,1.3787736096498527e-06
0.18023773293268194,0.1887160998583282,0.18447691639550506,0.00017843,1.3702584914290426e-06
0.1887160998583282,0.19759328841003618,0.19315469413418218,0.00018149999999999997,1.6896745248717189e-06
0.19759328841003618,0.20688805912162206,0.2022406737658291,0.00018271,1.2467190274208472e-06
0.20688805912162206,0.21662005502074405,0.21175405707118305,0.00018208000000000002,1.6913825705617185e-06
0.21662005502074405,0.226809843141334,0.22171494908103903,0.00018020999999999998,1.5974380530504211e-06
0.226809843141334,0.2374789579887712,0.2321444005650526,0.00017595999999999996,1.3987851872250755e-06
0.2374789579887712,0.24864994704965193,0.24306445251921155,0.00017499999999999997,1.2764697411221083e-06
0.24864994704965193,0.26034641844233664,0.2544981827459943,0.00017025,1.1705589832782307e-06
0.26034641844233664,0.2725930908089736,0.26646975462565514,0.00016549000000000004,1.085940452633541e-06
0.2725930908089736,0.28541584555443905,0.2790044681817063,0.00016151999999999998,1.2475743130840176e-06
0.28541584555443905,0.29884178154259267,0.29212881354851583,0.00015363,1.0726835507267108e-06
0.29884178154259267,0.31289927236543963,0.3058705269540162,0.00014780123579000002,1.045457224500317e-06
0.31289927236543963,0.3276180263062294,0.3202586493358345,0.00014043999999999998,1.0152257548612007e-06
0.3276180263062294,0.34302914912321286,0.33532358771472115,0.00013438,1.0588043571248422e-06
0.34302914912321286,0.3591652097867426,0.35109717945497776,0.00012548959439464752,1.0713436791490672e-06
0.3591652097867426,0.3760603093086394,0.367612759547691,0.00011731,1.3534893177758156e-06
0.3760603093086394,0.393750152809287,0.3849052310589632,0.00011161000000000002,1.2679609615440507e-06
0.393750152809287,0.41227212497475624,0.4030111388920216,0.00010205,8.364109835082735e-07
0.41227212497475624,0.4316653690634254,0.4219687470190908,9.657e-05,1.009797834552359e-06
0.4316653690634254,0.4519708696290653,0.4418181193462454,8.623e-05,7.68510464036317e-07
0.4519708696290653,0.47323153913521065,0.462601204382138,8.114e-05,9.441795380117097e-07
0.47323153913521065,0.49549230864386395,0.4843619238895373,7.400000000000001e-05,8.53912563829926e-07
0.49549230864386395,0.5188002227701878,0.5071462657070258,6.890999999999999e-05,9.535984479853411e-07
0.5188002227701878,0.5432045391038576,0.5310023809370227,6.337000000000001e-05,8.286686108852972e-07
0.5432045391038576,0.5687568323071858,0.5559806857055216,5.993999999999999e-05,8.044511586583091e-07
0.5687568323071858,0.5955111031100121,0.5821339677085989,5.529e-05,6.963715483370475e-07
0.5955111031100121,0.6235238924317065,0.6095174977708593,5.255999999999999e-05,5.788422352708595e-07
0.6235238924317065,0.6528544008714552,0.6381891466515808,4.823e-05,8.038863933002793e-07
0.6528544008714552,0.6835646138193648,0.66820950734541,4.803e-05,8.449999999999989e-07
0.6835646138193648,0.7157194324527797,0.6996420231360723,4.541999999999999e-05,7.510714568756848e-07
0.7157194324527797,0.7493868108946533,0.7325531216737164,4.459999999999999e-05,6.087897830943207e-07
0.7493868108946533,0.7846378998238388,0.7670123553592461,4.259e-05,7.698592945034431e-07
0.7846378998238388,0.8215471968407938,0.8030925483323164,4.21e-05,5.682575707077175e-07
0.8215471968407938,0.8601927039064753,0.8408699503736345,4.168e-05,7.011181545693091e-07
0.8601927039064753,0.9006560921871456,0.8804243980468105,4.0069999999999994e-05,6.563027756556756e-07
0.9006560921871456,0.9430228746534638,0.9218394834203048,4.011e-05,4.636988965553565e-07
0.9430228746534638,0.9873825867986226,0.9652027307260431,3.91e-05,4.736823830374003e-07
0.9873825867986226,1.0338289758574506,1.0106057813280365,3.86e-05,5.764474535173703e-07
1.0338289758574506,1.0824601989263642,1.0581445873919075,3.9160000000000005e-05,4.875277769864265e-07
1.0824601989263642,1.1333790304028648,1.1079196146646146,3.9160000000000005e-05,6.474115126151693e-07
1.1333790304028648,1.1866930791829704,1.1600360547929176,3.912e-05,4.837182375446851e-07
1.1866930791829704,1.2425150160755967,1.2146040476292836,3.833e-05,6.709321873334182e-07
1.2425150160755967,1.3009628119144887,1.2717389139950428,3.863000000000001e-05,4.401988187171579e-07
1.3009628119144887,1.3621599868709182,1.3315613993927036,3.8979999999999996e-05,7.972504834324903e-07
1.3621599868709182,1.4262358714940264,1.3941979291824724,3.778e-05,5.044221115957037e-07
1.4262358714940264,1.493325880030483,1.4597808757622546,3.8379999999999995e-05,5.137930841626182e-07
1.493325880030483,1.5635717966010745,1.5284488383157786,3.8639999999999996e-05,6.808511829565475e-07
1.5635717966010745,1.6371220748390232,1.6003469357200488,3.835000000000001e-05,5.419870847169418e-07
1.6371220748390232,1.7141321516232484,1.6756271132311358,3.844999999999999e-05,9.04041850063744e-07
1.7141321516232484,1.7947647755696305,1.7544484635964395,3.952000000000001e-05,5.388877434122634e-07
1.7947647755696305,1.8791903509744645,1.8369775632720475,3.8740000000000005e-05,6.293978603924974e-07
1.8791903509744645,1.9675872979369864,1.9233888244557256,3.8129999999999996e-05,8.090786941536326e-07
1.9675872979369864,2.0601424294220303,2.0138648636795082,3.829e-05,7.002499553730783e-07
2.0601424294220303,2.15705134605968,2.1085968877408554,3.763e-05,5.875655991745384e-07
2.15705134605968,2.2585188495162605,2.20778509778797,3.9099999999999995e-05,6.467869303977384e-07
2.2585188495162605,2.3647593753102636,2.3116391124132623,3.8350000000000004e-05,7.048936089935732e-07
2.3647593753102636,2.4759974459878986,2.4203784106490813,3.91e-05,6.079336586613014e-07
2.4759974459878986,2.592468145615978,2.5342327958019384,3.916999999999999e-05,6.304297476061053e-07
2.592468145615978,2.7144176165949068,2.6534428811054425,3.7749999999999996e-05,5.236092690801831e-07
2.7144176165949068,2.842103579841711,2.778260598218309,3.863000000000001e-05,6.737828532496902e-07
2.842103579841711,2.9757958794424315,2.908949729642071,3.9359999999999996e-05,6.498525473777402e-07
2.9757958794424315,3.1157770529249142,3.0457864661836727,3.828e-05,5.525169680652416e-07
3.1157770529249142,3.2623429283571834,3.1890599906410486,3.9359999999999996e-05,5.450688029964768e-07
3.2623429283571834,3.415803249533272,3.339073088945228,3.947000000000001e-05,4.944104232989462e-07
3.415803249533272,3.5764823305677327,3.496142790050502,3.8079999999999995e-05,5.161395160225796e-07
3.5764823305677327,3.74471974128222,3.6606010359249765,3.914999999999999e-05,5.986094998689522e-07
3.74471974128222,3.920871024832596,3.832795383057408,3.879e-05,4.792963592600941e-07
3.920871024832596,4.105308449093149,4.013089736962873,3.794999999999999e-05,5.863019699779671e-07
4.105308449093149,4.2984217933858595,4.201865121239504,3.971e-05,6.800245093622112e-07
4.2984217933858595,4.500619172217357,4.399520482801608,3.938e-05,7.160540016879599e-07
4.500619172217357,4.712327897764348,4.606473534990853,3.875e-05,5.580845216751196e-07
4.712327897764348,4.93399538293033,4.8231616403473385,4.0369999999999995e-05,6.347768636825667e-07
4.93399538293033,5.166090086881981,5.050042734906155,3.927e-05,5.431236814329914e-07
5.166090086881981,5.409102505063519,5.28759629597275,3.852e-05,6.947601504596177e-07
5.409102505063519,5.663546205781223,5.536324355422371,3.94e-05,6.554260700745077e-07
5.663546205781223,5.9299589155488235,5.796752560665023,3.907e-05,6.081940479813894e-07
5.9299589155488235,6.2089036554874255,6.0694312855181245,4.046e-05,7.332405244301791e-07
6.2089036554874255,6.5009699311815945,6.35493679333451,3.619e-05,5.72691016168417e-07
6.5009699311815945,6.806774978506158,6.653872454843876,2.895e-05,4.4323620489907427e-07
6.806774978506158,7.1269650680565935,6.966870023281375,4.928999999999999e-05,5.380675298386889e-07
7.1269650680565935,7.462216870939709,7.2945909694981514,6.0330000000000014e-05,9.341573743218529e-07
7.462216870939709,7.8132388888109885,7.637727879875349,6.077999999999999e-05,8.213708054222898e-07
7.8132388888109885,8.180772951180769,7.997005919995878,5.9819999999999986e-05,7.207519221849766e-07
8.180772951180769,8.565595783153572,8.37318436716717,5.957000000000001e-05,6.415346184475287e-07
8.565595783153572,8.96852064691375,8.76705821503366,5.887e-05,8.348053665376358e-07
8.96852064691375,9.39039906042647,9.17945985367011,6.048e-05,7.369588410035791e-07
9.39039906042647,9.832122596986238,9.611260828706353,6.0570000000000005e-05,7.624685785875465e-07
9.832122596986238,10.294624769416025,10.063373683201132,6.0030000000000006e-05,1.004606058777896e-06
10.294624769416025,10.778883002898993,10.53675388615751,6.152000000000001e-05,7.520693673679796e-07
10.778883002898993,11.285920700611948,11.03240185175547,6.078999999999999e-05,6.504293453814787e-07
11.285920700611948,11.816809406526113,11.55136505356903,6.0169999999999995e-05,7.8947767542851e-07
11.816809406526113,12.372671069945815,12.094740238235964,6.082e-05,7.288003841930943e-07
12.372671069945815,12.954680416570856,12.663675743258334,5.994000000000001e-05,6.262121578719235e-07
12.954680416570856,13.56406743109347,13.259373923832163,6.136999999999999e-05,7.416367035146244e-07
13.56406743109347,14.202119956576416,13.883093693834944,6.143999999999998e-05,8.05486395498663e-07
14.202119956576416,14.87018641610557,14.536153186340993,6.127e-05,6.71739036630556e-07
14.87018641610557,15.569678662468833,15.219932539287202,6.157e-05,1.0055595457256625e-06
15.569678662468833,16.30207496188367,15.93587681217625,6.222e-05,8.204825815741657e-07
