energy low [eV],energy high [eV],energy mid [eV],mean,std. dev.
0.001,0.0010470399110535467,0.0010235199555267732,1e-08,1e-08
0.0010470399110535467,0.0010962925753390188,0.0010716662431962828,0.0,0.0
0.0010962925753390188,0.0011478620805716298,0.0011220773279553243,1e-08,1e-08
0.0011478620805716298,0.001201857410743458,0.0011748597456575438,1e-08,1e-08
0.001201857410743458,0.0012583926764438763,0.0012301250435936672,1e-08,1e-08
0.0012583926764438763,0.0013175873560142307,0.0012879900162290534,0.0,0.0
0.0013175873560142307,0.0013795665480464177,0.0013485769520303241,1e-08,1e-08
0.0013795665480464177,0.0014444612357589696,0.0014120138919026938,2e-08,1.3844373104863458e-08
0.0014444612357589696,0.0015124085638093675,0.0014784348997841684,1e-08,1e-08
0.0015124085638093675,0.0015835521281275823,0.0015479803459684748,0.0,0.0
0.0015835521281275823,0.0016580422793833582,0.0016207972037554702,2e-08,1.3844373104863458e-08
0.0016580422793833582,0.0017360364407285694,0.0016970393600559638,0.0,0.0
0.0017360364407285694,0.0018176994404861568,0.001776867940607363,0.0,0.0
0.0018176994404861568,0.001903203860488707,0.0018604516504874319,2e-08,1.3844373104863458e-08
0.001903203860488707,0.0019927304008028625,0.0019479671306457847,1e-08,1e-08
0.0019927304008028625,0.0020864682616103273,0.0020395993312065947,0.0,0.0
0.0020864682616103273,0.0021846155430525253,0.002135541902331426,5e-08,2.0412414523193148e-08
0.0021846155430525253,0.0022873796638839114,0.002235997603468218,6e-08,2.179449471770337e-08
0.0022873796638839114,0.0023949777998187017,0.0023411787318513063,6.999999999999999e-08,2.2912878474779198e-08
0.0023949777998187017,0.0025076373424973925,0.002451307571158047,3.0000000000000004e-08,1.6583123951776998e-08
0.0025076373424973925,0.002625596380043022,0.002566616861270207,5e-08,2.5000000000000002e-08
0.002625596380043022,0.0027491042002227594,0.0026873502901328906,3.0000000000000004e-08,2.19848432637882e-08
0.0027491042002227594,0.0028784218172781696,0.0028137630087504643,6e-08,2.179449471770337e-08
0.0028784218172781696,0.0030138225235375226,0.002946122170407846,6.999999999999999e-08,2.70801280154532e-08
0.0030138225235375226,0.003155592466975903,0.0030847074952567127,1.5e-07,4.787135538781691e-08
0.003155592466975903,0.003304031255943691,0.0032298118614597967,1.4e-07,3.559026084010436e-08
0.003304031255943691,0.0034594525923414203,0.0033817419241425556,1.2000000000000002e-07,3.570714214271425e-08
0.0034594525923414203,0.0036221849345791216,0.003540818763460271,1.0999999999999999e-07,3.253203549323856e-08
0.0036221849345791216,0.00379257219172122,0.003707378563150171,2.3000000000000002e-07,5.759050847723666e-08
0.00379257219172122,0.003970974450283936,0.0038817733210025785,2.2000000000000006e-07,4.4064346888007605e-08
0.003970974450283936,0.004157768735221199,0.004064371592752568,2.1999999999999998e-07,5.267826876426369e-08
0.004157768735221199,0.004353349806707221,0.00425555927096421,2.7000000000000006e-07,5.575242894559242e-08
0.004353349806707221,0.004558130994399704,0.0044557404005534625,3.000000000000001e-07,6.614378277661473e-08
0.004558130994399704,0.0047725450709466795,0.004665338032673192,3.6e-07,5.6050572402667465e-08
0.0047725450709466795,0.004997045166583053,0.004884795118764867,4.6e-07,5.894913061275796e-08
0.004997045166583053,0.005232105726749675,0.005114575446666364,4.800000000000002e-07,5.1881274720911225e-08
0.005232105726749675,0.005478223514758732,0.005355164620754204,6.500000000000001e-07,9.789450103725608e-08
0.005478223514758732,0.00573591866162443,0.005607071088191581,6.599999999999999e-07,6.271629240742265e-08
0.00573591866162443,0.0060057357652776215,0.005870827213451026,7.4e-07,8.953584012375525e-08
0.0060057357652776215,0.006288245041487384,0.0061469904033825025,8.599999999999998e-07,9.023118455759449e-08
0.006288245041487384,0.006584043528921856,0.00643614428520462,9.3e-07,7.291547618075788e-08
0.006584043528921856,0.00689375635089502,0.006738899939908438,1.1600000000000001e-06,8.883505314157619e-08
0.00689375635089502,0.0072180380364659435,0.007055897193680482,1.4900000000000001e-06,1.1317390747576633e-07
0.0072180380364659435,0.007557573903682418,0.007387805970074181,1.47e-06,1.2526638282742378e-07
0.007557573903682418,0.007913081507892243,0.00773532770578733,1.6199999999999995e-06,9.90790929846794e-08
0.007913081507892243,0.00828531215818296,0.0080991968330376,1.98e-06,1.4784564022430065e-07
0.00828531215818296,0.008675052505154754,0.008480182331668857,2.5300000000000003e-06,1.5832456116050526e-07
0.008675052505154754,0.00908312620338208,0.008879089354268416,2.8e-06,1.3616778865306873e-07
0.00908312620338208,0.009510395652077312,0.009296760927729696,3.0799999999999993e-06,2.2440662497647786e-07
0.009510395652077312,0.009957763817635065,0.00973407973485619,3.8599999999999995e-06,1.5143755588800804e-07
0.009957763817635065,0.010426176141908838,0.010191969979771951,4.229999999999999e-06,1.5871882896073454e-07
0.010426176141908838,0.01091662254025284,0.010671399341080839,4.96e-06,1.9773719933285248e-07
0.01091662254025284,0.011430139493551475,0.011173381016902156,5.39e-06,2.894247167514663e-07
0.011430139493551475,0.011967812238657767,0.01169897586610462,6.2399999999999995e-06,2.2149115858953236e-07
0.011967812238657767,0.012530777061869775,0.01224929465026377,7.199999999999998e-06,2.2453655975512718e-07
0.012530777061869775,0.01312022370029195,0.012825500381080861,7.939999999999999e-06,3.404286513598225e-07
0.01312022370029195,0.013737397856156318,0.013428810778224134,8.93e-06,2.841361176150149e-07
0.013737397856156318,0.014383603829417092,0.014060500842786705,1.005e-05,2.700308624336584e-07
0.014383603829417092,0.015060207274182318,0.014721905551799705,1.1709999999999998e-05,3.4990474894367077e-07
0.015060207274182318,0.01576863808480783,0.015414422679495074,1.3059999999999999e-05,3.873736353100625e-07
0.01576863808480783,0.016510393417752758,0.016139515751280295,1.528e-05,5.276362383309194e-07
0.016510393417752758,0.017287040855582907,0.01689871713666783,1.745e-05,4.811011674620325e-07
0.017287040855582907,0.018100221719808556,0.01769363128769573,2.021e-05,4.3652987679347863e-07
0.018100221719808556,0.01895165453955782,0.018525938129683187,2.271e-05,3.343775311430539e-07
0.01895165453955782,0.019843138683416164,0.01939739661148699,2.376e-05,5.499015063324192e-07
0.019843138683416164,0.020776558162107252,0.020309848422761706,2.7069999999999997e-05,4.144574767090149e-07
0.020776558162107252,0.021753885610051614,0.021265221886079433,3.226e-05,5.023859737957161e-07
0.021753885610051614,0.02277718645421747,0.02226553603213454,3.62e-05,6.299801584177051e-07
0.02277718645421747,0.023848623279073906,0.023312904866645688,3.817e-05,5.883805457921454e-07
0.023848623279073906,0.02497046039687107,0.02440954183797249,4.4609999999999995e-05,5.814994984234137e-07
0.02497046039687107,0.026145068632905992,0.02555776451488853,5.134e-05,7.627909281054327e-07
0.026145068632905992,0.02737493033588676,0.026759999484396377,5.543e-05,7.446363765847691e-07
0.02737493033588676,0.02866264462398391,0.028018787479935338,6.2e-05,8.938446919534456e-07
0.02866264462398391,0.03001093287765553,0.02933678875081972,6.983e-05,9.683232931206438e-07
0.03001093287765553,0.031422644490854405,0.030716788684254967,7.754e-05,8.736513415926348e-07
0.031422644490854405,0.03290076289277141,0.03216170369181291,8.615e-05,7.219764539097061e-07
0.03290076289277141,0.034448411852841206,0.033674587372806306,9.58e-05,8.56835262268428e-07
0.034448411852841206,0.0360688620823348,0.035258636967588006,0.00010669999999999999,9.718967709244006e-07
0.0360688620823348,0.03776553814649047,0.03691720011441263,0.00011933999999999998,9.920391457330418e-07
0.03776553814649047,0.039542025701790676,0.03865378192414057,0.00013335,1.265816600723283e-06
0.039542025701790676,0.041402079073679966,0.040472052387735324,0.00014422,9.254863586243669e-07
0.041402079073679966,0.04334962919073777,0.04237585413220887,0.00016084999999999998,1.3627484482962166e-06
0.04334962919073777,0.04538879189207431,0.04436921054140604,0.00017551999999999997,1.1364161503017031e-06
0.04538879189207431,0.04752387662550542,0.046456334258789866,0.00019345999999999995,1.3410723321285677e-06
0.04752387662550542,0.04975939555488892,0.04864163609019717,0.00021122000000000003,1.7908517526584036e-06
0.04975939555488892,0.052100073095869136,0.05092973432537903,0.00023345000000000004,1.6181264886689961e-06
0.052100073095869136,0.05455085590018209,0.05332546449802561,0.00025361000000000003,1.73187518795854e-06
0.05455085590018209,0.057116923309621495,0.05583388960490179,0.00027577,1.5010357535161195e-06
0.057116923309621495,0.059803698301758336,0.05846031080568992,0.00029980999999999996,1.6561929235451457e-06
0.059803698301758336,0.06261685895054618,0.06121027862615226,0.00032729,1.9021194319317428e-06
0.06261685895054618,0.06556235042603231,0.06408960468828925,0.00035682999999999993,1.3994582285069738e-06
0.06556235042603231,0.06864639755853433,0.06710437399228332,0.00038308999999999994,1.6305597198507643e-06
0.06864639755853433,0.07187551799383418,0.07026095777618425,0.0004162199999999999,2.036966699122535e-06
0.07187551799383418,0.07525653596719173,0.07356602698051296,0.000446,2.3680600358380347e-06
0.07525653596719173,0.07879659672528647,0.0770265663462391,0.00048075,2.3437416666516265e-06
0.07879659672528647,0.08250318162656611,0.08064988917592629,0.00051181,1.942361106145455e-06
0.08250318162656611,0.08638412395191439,0.08444365278924025,0.00055035,1.8798271197103364e-06
0.08638412395191439,0.090447625459051,0.08841587470548269,0.0005836600000000001,2.488803259935256e-06
0.090447625459051,0.09470227371564925,0.09257494958735013,0.0006216699999999998,2.6485341857979583e-06
0.09470227371564925,0.099157060247802,0.09692966698172563,0.00065932,2.276991802063855e-06
0.099157060247802,0.10382139954218973,0.10148922989499587,0.00069986,2.8165093644435066e-06
0.10382139954218973,0.10870514894210906,0.1062632742421494,0.0007347,2.562713405747188e-06
0.10870514894210906,0.1138186294794084,0.11126188921075873,0.0007761999999999999,3.5261227526376853e-06
0.1138186294794084,0.11917264768635635,0.11649563858288238,0.0008110299999999998,2.9276455272703223e-06
0.11917264768635635,0.1247785184335382,0.12197558305994727,0.0008349099999999998,3.7630572677027944e-06
0.1247785184335382,0.13064808884204515,0.12771330363779168,0.0008784699999999998,3.1509694275480453e-06
0.13064808884204515,0.1367937633204908,0.13372092608126798,0.00090784,4.173699398215412e-06
0.1367937633204908,0.1432285297797666,0.1400111465501287,0.0009309199999999999,2.809942170225444e-06
0.1432285297797666,0.14996598708093709,0.14659725843035185,0.0009665899999999999,3.3017318687821215e-06
0.14996598708093709,0.15702037377428169,0.1534931804276094,0.00098439,2.2796692011498058e-06
0.15702037377428169,0.16440659819021855,0.1607134859822501,0.00100586,2.4088413535694896e-06
0.16440659819021855,0.1721402699457026,0.16827343406796058,0.0010251899999999996,4.199213219961266e-06
0.1721402699457026,0.18023773293268194,0.17618900143919228,0.0010283900000000001,2.980459975681658e-06
0.18023773293268194,0.1887160998583282,0.18447691639550506,0.00103559963824,3.684014841021801e-06
0.1887160998583282,0.19759328841003618,0.19315469413418218,0.00103279,3.4025933736879126e-06
0.19759328841003618,0.20688805912162206,0.2022406737658291,0.0010211499999999997,2.5978757347771324e-06
0.20688805912162206,0.21662005502074405,0.21175405707118305,0.0010131699999999999,2.9791189972882535e-06
0.21662005502074405,0.226809843141334,0.22171494908103903,0.0009942999999999998,3.2491665598034464e-06
0.226809843141334,0.2374789579887712,0.2321444005650526,0.0009796700000000002,3.4048898660582416e-06
0.2374789579887712,0.24864994704965193,0.24306445251921155,0.00094274,4.075063394189549e-06
0.24864994704965193,0.26034641844233664,0.2544981827459943,0.00091484,2.81823969881954e-06
0.26034641844233664,0.2725930908089736,0.26646975462565514,0.0008768799999999999,3.472874649817294e-06
0.2725930908089736,0.28541584555443905,0.2790044681817063,0.00083069,2.2663425013308283e-06
0.28541584555443905,0.29884178154259267,0.29212881354851583,0.0007869800000000001,2.916330456810789e-06
0.29884178154259267,0.31289927236543963,0.3058705269540162,0.0007364900000000002,2.099527724669254e-06
0.31289927236543963,0.3276180263062294,0.3202586493358345,0.00068978,2.553890822516157e-06
0.3276180263062294,0.34302914912321286,0.33532358771472115,0.0006321099999999999,2.1626122321554697e-06
0.34302914912321286,0.3591652097867426,0.35109717945497776,0.0005822499999999999,2.4256013000223517e-06
0.3591652097867426,0.3760603093086394,0.367612759547691,0.00052619,2.0001708260383797e-06
0.3760603093086394,0.393750152809287,0.3849052310589632,0.00047532,2.17956991170211e-06
0.393750152809287,0.41227212497475624,0.4030111388920216,0.00042503,2.803803963664942e-06
0.41227212497475624,0.4316653690634254,0.4219687470190908,0.00037742000000000006,1.6842852094181223e-06
0.4316653690634254,0.4519708696290653,0.4418181193462454,0.00032723,1.9937882702693653e-06
0.4519708696290653,0.47323153913521065,0.462601204382138,0.00028858000000000003,1.642706100717042e-06
0.47323153913521065,0.49549230864386395,0.4843619238895373,0.00025097,1.5060516812736404e-06
0.49549230864386395,0.5188002227701878,0.5071462657070258,0.00021575,1.6632047378478319e-06
0.5188002227701878,0.5432045391038576,0.5310023809370227,0.00018287999999999996,1.2923750745562043e-06
0.5432045391038576,0.5687568323071858,0.5559806857055216,0.00015892999999999997,1.18765525300908e-06
0.5687568323071858,0.5955111031100121,0.5821339677085989,0.00013462,1.0700584096206155e-06
0.5955111031100121,0.6235238924317065,0.6095174977708593,0.00011436999999999998,1.0124351831106122e-06
0.6235238924317065,0.6528544008714552,0.6381891466515808,9.727e-05,9.890989165228864e-07
0.6528544008714552,0.6835646138193648,0.66820950734541,8.629999999999997e-05,9.098992618234639e-07
0.6835646138193648,0.7157194324527797,0.6996420231360723,7.308999999999999e-05,8.607022326759448e-07
0.7157194324527797,0.7493868108946533,0.7325531216737164,6.507000000000001e-05,8.505537411983823e-07
0.7493868108946533,0.7846378998238388,0.7670123553592461,5.76e-05,7.213991035943117e-07
0.7846378998238388,0.8215471968407938,0.8030925483323164,5.325000000000001e-05,8.220908303425518e-07
0.8215471968407938,0.8601927039064753,0.8408699503736345,4.818e-05,7.384555955957353e-07
0.8601927039064753,0.9006560921871456,0.8804243980468105,4.7999999999999994e-05,7.311520589681355e-07
0.9006560921871456,0.9430228746534638,0.9218394834203048,4.491999999999998e-05,8.156950001890285e-07
0.9430228746534638,0.9873825867986226,0.9652027307260431,4.221999999999999e-05,7.23751799076647e-07
0.9873825867986226,1.0338289758574506,1.0106057813280365,4.229e-05,6.747962655498257e-07
1.0338289758574506,1.0824601989263642,1.0581445873919075,4.0230000000000006e-05,7.706761100920634e-07
1.0824601989263642,1.1333790304028648,1.1079196146646146,4.129e-05,5.87487588521371e-07
1.1333790304028648,1.1866930791829704,1.1600360547929176,3.976999999999999e-05,6.535033792312963e-07
1.1866930791829704,1.2425150160755967,1.2146040476292836,3.9240000000000004e-05,5.040419956048554e-07
1.2425150160755967,1.3009628119144887,1.2717389139950428,3.95e-05,6.306412080837477e-07
1.3009628119144887,1.3621599868709182,1.3315613993927036,3.8660000000000006e-05,6.459618151768977e-07
1.3621599868709182,1.4262358714940264,1.3941979291824724,3.723e-05,7.891081463694838e-07
1.4262358714940264,1.493325880030483,1.4597808757622546,3.831999999999999e-05,6.244197306299775e-07
1.493325880030483,1.5635717966010745,1.5284488383157786,3.74e-05,7.610300037887114e-07
1.5635717966010745,1.6371220748390232,1.6003469357200488,3.699999999999999e-05,5.234102915814336e-07
1.6371220748390232,1.7141321516232484,1.6756271132311358,3.689000000000001e-05,5.012650662739784e-07
1.7141321516232484,1.7947647755696305,1.7544484635964395,3.7069999999999996e-05,6.10587149116888e-07
1.7947647755696305,1.8791903509744645,1.8369775632720475,3.71e-05,7.241374178980094e-07
1.8791903509744645,1.9675872979369864,1.9233888244557256,3.613999999999999e-05,6.213359263179324e-07
1.9675872979369864,2.0601424294220303,2.0138648636795082,3.511999999999999e-05,5.54361494574332e-07
2.0601424294220303,2.15705134605968,2.1085968877408554,3.6379999999999994e-05,7.534808115229926e-07
2.15705134605968,2.2585188495162605,2.20778509778797,3.602e-05,5.827234907455355e-07
2.2585188495162605,2.3647593753102636,2.3116391124132623,3.5e-05,7.477744758058226e-07
2.3647593753102636,2.4759974459878986,2.4203784106490813,3.509999999999999e-05,5.937171043519027e-07
2.4759974459878986,2.592468145615978,2.5342327958019384,3.4890000000000006e-05,4.1884762543593147e-07
2.592468145615978,2.7144176165949068,2.6534428811054425,3.4160000000000005e-05,4.90085026636524e-07
2.7144176165949068,2.842103579841711,2.778260598218309,3.457e-05,5.847934108155834e-07
2.842103579841711,2.9757958794424315,2.908949729642071,3.454e-05,6.066781134451196e-07
2.9757958794424315,3.1157770529249142,3.0457864661836727,3.382999999999999e-05,6.141932377789248e-07
3.1157770529249142,3.2623429283571834,3.1890599906410486,3.456999999999999e-05,7.303709103371449e-07
3.2623429283571834,3.415803249533272,3.339073088945228,3.302e-05,6.342515273927106e-07
3.415803249533272,3.5764823305677327,3.496142790050502,3.338e-05,5.144009460851795e-07
3.5764823305677327,3.74471974128222,3.6606010359249765,3.2819999999999994e-05,5.846152580971609e-07
3.74471974128222,3.920871024832596,3.832795383057408,3.3220000000000004e-05,6.016158796663035e-07
3.920871024832596,4.105308449093149,4.013089736962873,3.374e-05,5.570532589737943e-07
4.105308449093149,4.2984217933858595,4.201865121239504,3.358999999999999e-05,6.044763574092044e-07
4.2984217933858595,4.500619172217357,4.399520482801608,3.267000000000001e-05,3.7630882707332e-07
4.500619172217357,4.712327897764348,4.606473534990853,3.254e-05,4.3389706920728976e-07
4.712327897764348,4.93399538293033,4.8231616403473385,3.269999999999999e-05,5.25793051811601e-07
4.93399538293033,5.166090086881981,5.050042734906155,3.1899999999999996e-05,5.829165177507538e-07
5.166090086881981,5.409102505063519,5.28759629597275,3.19e-05,7.764770870197341e-07
5.409102505063519,5.663546205781223,5.536324355422371,3.231e-05,5.00474774589085e-07
5.663546205781223,5.9299589155488235,5.796752560665023,3.192e-05,5.634196186384309e-07
5.9299589155488235,6.2089036554874255,6.0694312855181245,3.1190000000000005e-05,4.7484207901151637e-07
6.2089036554874255,6.5009699311815945,6.35493679333451,3.1060000000000004e-05,6.237120061908771e-07
6.5009699311815945,6.806774978506158,6.653872454843876,3.1459999999999994e-05,4.78643917751006e-07
6.806774978506158,7.1269650680565935,6.966870023281375,2.9679999999999994e-05,5.563122624330249e-07
7.1269650680565935,7.462216870939709,7.2945909694981514,2.9259999999999998e-05,5.459090278303579e-07
7.462216870939709,7.8132388888109885,7.637727879875349,3.0349999999999996e-05,5.371607456494622e-07
7.8132388888109885,8.180772951180769,7.997005919995878,3.0450000000000005e-05,5.814851674806329e-07
8.180772951180769,8.565595783153572,8.37318436716717,2.9779999999999996e-05,6.527697399032397e-07
8.565595783153572,8.96852064691375,8.76705821503366,3.0229999999999997e-05,6.65976726320075e-07
8.96852064691375,9.39039906042647,9.17945985367011,2.9820000000000002e-05,5.598586131039277e-07
9.39039906042647,9.832122596986238,9.611260828706353,3.0109999999999995e-05,5.755577005537178e-07
9.832122596986238,10.294624769416025,10.063373683201132,2.9319999999999997e-05,6.32211726138218e-07
10.294624769416025,10.778883002898993,10.53675388615751,2.958e-05,6.190920771581523e-07
10.778883002898993,11.285920700611948,11.03240185175547,2.8529999999999996e-05,5.491129209916632e-07
11.285920700611948,11.816809406526113,11.55136505356903,2.9259999999999998e-05,5.388026849722766e-07
11.816809406526113,12.372671069945815,12.094740238235964,2.878e-05,4.874081109980324e-07
