energy low [eV],energy high [eV],energy mid [eV],mean,std. dev.
0.001,0.0010470399110535467,0.0010235199555267732,0.0,0.0
0.0010470399110535467,0.0010962925753390188,0.0010716662431962828,0.0,0.0
0.0010962925753390188,0.0011478620805716298,0.0011220773279553243,0.0,0.0
0.0011478620805716298,0.001201857410743458,0.0011748597456575438,0.0,0.0
0.001201857410743458,0.0012583926764438763,0.0012301250435936672,0.0,0.0
0.0012583926764438763,0.0013175873560142307,0.0012879900162290534,0.0,0.0
0.0013175873560142307,0.0013795665480464177,0.0013485769520303241,0.0,0.0
0.0013795665480464177,0.0014444612357589696,0.0014120138919026938,0.0,0.0
0.0014444612357589696,0.0015124085638093675,0.0014784348997841684,0.0,0.0
0.0015124085638093675,0.0015835521281275823,0.0015479803459684748,0.0,0.0
0.0015835521281275823,0.0016580422793833582,0.0016207972037554702,0.0,0.0
0.0016580422793833582,0.0017360364407285694,0.0016970393600559638,0.0,0.0
0.0017360364407285694,0.0018176994404861568,0.001776867940607363,0.0,0.0
0.0018176994404861568,0.001903203860488707,0.0018604516504874319,0.0,0.0
0.001903203860488707,0.0019927304008028625,0.0019479671306457847,0.0,0.0
0.0019927304008028625,0.0020864682616103273,0.0020395993312065947,0.0,0.0
0.0020864682616103273,0.0021846155430525253,0.002135541902331426,0.0,0.0
0.0021846155430525253,0.0022873796638839114,0.002235997603468218,0.0,0.0
0.0022873796638839114,0.0023949777998187017,0.0023411787318513063,0.0,0.0
0.0023949777998187017,0.0025076373424973925,0.002451307571158047,0.0,0.0
0.0025076373424973925,0.002625596380043022,0.002566616861270207,1e-08,1e-08
0.002625596380043022,0.0027491042002227594,0.0026873502901328906,1e-08,1e-08
0.0027491042002227594,0.0028784218172781696,0.0028137630087504643,0.0,0.0
0.0028784218172781696,0.0030138225235375226,0.002946122170407846,1e-08,1e-08
0.0030138225235375226,0.003155592466975903,0.0030847074952567127,0.0,0.0
0.003155592466975903,0.003304031255943691,0.0032298118614597967,0.0,0.0
0.003304031255943691,0.0034594525923414203,0.0033817419241425556,0.0,0.0
0.0034594525923414203,0.0036221849345791216,0.003540818763460271,0.0,0.0
0.0036221849345791216,0.00379257219172122,0.003707378563150171,0.0,0.0
0.00379257219172122,0.003970974450283936,0.0038817733210025785,0.0,0.0
0.003970974450283936,0.004157768735221199,0.004064371592752568,0.0,0.0
0.004157768735221199,0.004353349806707221,0.00425555927096421,0.0,0.0
0.004353349806707221,0.004558130994399704,0.0044557404005534625,0.0,0.0
0.004558130994399704,0.0047725450709466795,0.004665338032673192,1e-08,1e-08
0.0047725450709466795,0.004997045166583053,0.004884795118764867,0.0,0.0
0.004997045166583053,0.005232105726749675,0.005114575446666364,2e-08,2e-08
0.005232105726749675,0.005478223514758732,0.005355164620754204,1e-08,1e-08
0.005478223514758732,0.00573591866162443,0.005607071088191581,0.0,0.0
0.00573591866162443,0.0060057357652776215,0.005870827213451026,1e-08,1e-08
0.0060057357652776215,0.006288245041487384,0.0061469904033825025,1e-08,1e-08
0.006288245041487384,0.006584043528921856,0.00643614428520462,0.0,0.0
0.006584043528921856,0.00689375635089502,0.006738899939908438,1e-08,1e-08
0.00689375635089502,0.0072180380364659435,0.007055897193680482,4e-08,1.8708286933869706e-08
0.0072180380364659435,0.007557573903682418,0.007387805970074181,1e-08,1e-08
0.007557573903682418,0.007913081507892243,0.00773532770578733,1e-08,1e-08
0.007913081507892243,0.00828531215818296,0.0080991968330376,3.0000000000000004e-08,1.6583123951776998e-08
0.00828531215818296,0.008675052505154754,0.008480182331668857,4e-08,1.8708286933869706e-08
0.008675052505154754,0.00908312620338208,0.008879089354268416,3.0000000000000004e-08,2.19848432637882e-08
0.00908312620338208,0.009510395652077312,0.009296760927729696,4e-08,1.8708286933869706e-08
0.009510395652077312,0.009957763817635065,0.00973407973485619,4e-08,2.362907813126304e-08
0.009957763817635065,0.010426176141908838,0.010191969979771951,1.0000000000000001e-07,2.8867513459481285e-08
0.010426176141908838,0.01091662254025284,0.010671399341080839,6.000000000000001e-08,2.614064523559687e-08
0.01091662254025284,0.011430139493551475,0.011173381016902156,1.4e-07,3.253203549323855e-08
0.011430139493551475,0.011967812238657767,0.01169897586610462,1.0000000000000001e-07,2.4999999999999996e-08
0.011967812238657767,0.012530777061869775,0.01224929465026377,1e-07,3.535533905932738e-08
0.012530777061869775,0.01312022370029195,0.012825500381080861,8.999999999999999e-08,3.1885210782848316e-08
0.01312022370029195,0.013737397856156318,0.013428810778224134,1.9000000000000003e-07,4.627814458971607e-08
0.013737397856156318,0.014383603829417092,0.014060500842786705,1.5e-07,3.535533905932738e-08
0.014383603829417092,0.015060207274182318,0.014721905551799705,1.7e-07,4.5000000000000006e-08
0.015060207274182318,0.01576863808480783,0.015414422679495074,1.8e-07,3.958114029012639e-08
0.01576863808480783,0.016510393417752758,0.016139515751280295,3.3000000000000007e-07,4.262237284181473e-08
0.016510393417752758,0.017287040855582907,0.01689871713666783,3.100000000000001e-07,5.454356057317854e-08
0.017287040855582907,0.018100221719808556,0.01769363128769573,3.5999999999999994e-07,5.2201532544552786e-08
0.018100221719808556,0.01895165453955782,0.018525938129683187,3.3e-07,5.7227615711297996e-08
0.01895165453955782,0.019843138683416164,0.01939739661148699,3.4e-07,5.3774219349672256e-08
0.019843138683416164,0.020776558162107252,0.020309848422761706,3.1e-07,4.39696865275764e-08
0.020776558162107252,0.021753885610051614,0.021265221886079433,4.3e-07,6.849574196011506e-08
0.021753885610051614,0.02277718645421747,0.02226553603213454,6.400000000000001e-07,6.626965117357008e-08
0.02277718645421747,0.023848623279073906,0.023312904866645688,7.2e-07,7.815582725128904e-08
0.023848623279073906,0.02497046039687107,0.02440954183797249,8.100000000000001e-07,7.67571929311297e-08
0.02497046039687107,0.026145068632905992,0.02555776451488853,7.499999999999998e-07,9.354143466934859e-08
0.026145068632905992,0.02737493033588676,0.026759999484396377,7.799999999999998e-07,1.0238815035605116e-07
0.02737493033588676,0.02866264462398391,0.028018787479935338,1.02e-06,1.0499999999999997e-07
0.02866264462398391,0.03001093287765553,0.02933678875081972,1.0700000000000003e-06,1.1503622617824916e-07
0.03001093287765553,0.031422644490854405,0.030716788684254967,1.35e-06,8.897565210026106e-08
0.031422644490854405,0.03290076289277141,0.03216170369181291,1.36e-06,1.2506664889836421e-07
0.03290076289277141,0.034448411852841206,0.033674587372806306,1.65e-06,1.5612494995995997e-07
0.034448411852841206,0.0360688620823348,0.035258636967588006,1.75e-06,9.128709291752786e-08
0.0360688620823348,0.03776553814649047,0.03691720011441263,1.7800000000000001e-06,1.3253930234714036e-07
0.03776553814649047,0.039542025701790676,0.03865378192414057,2.0399999999999995e-06,1.532155344604458e-07
0.039542025701790676,0.041402079073679966,0.040472052387735324,2.48e-06,1.6950909513454823e-07
0.041402079073679966,0.04334962919073777,0.04237585413220887,2.6099999999999996e-06,1.3850391089544535e-07
0.04334962919073777,0.04538879189207431,0.04436921054140604,2.77e-06,1.322245564686578e-07
0.04538879189207431,0.04752387662550542,0.046456334258789866,2.9699999999999995e-06,1.596350003393161e-07
0.04752387662550542,0.04975939555488892,0.04864163609019717,3.65e-06,1.1989578808281767e-07
0.04975939555488892,0.052100073095869136,0.05092973432537903,3.4899999999999996e-06,1.5239750654128181e-07
0.052100073095869136,0.05455085590018209,0.05332546449802561,4.19e-06,2.425042954946026e-07
0.05455085590018209,0.057116923309621495,0.05583388960490179,4.88e-06,2.0264912204760928e-07
0.057116923309621495,0.059803698301758336,0.05846031080568992,5.31e-06,2.3641418457162497e-07
0.059803698301758336,0.06261685895054618,0.06121027862615226,5.459999999999999e-06,2.321457875272922e-07
0.06261685895054618,0.06556235042603231,0.06408960468828925,6.76e-06,2.600000000000005e-07
0.06556235042603231,0.06864639755853433,0.06710437399228332,6.7699999999999996e-06,2.6335970332101583e-07
0.06864639755853433,0.07187551799383418,0.07026095777618425,7.280000000000001e-06,3.1830279085591763e-07
0.07187551799383418,0.07525653596719173,0.07356602698051296,8.25e-06,2.277608394786067e-07
0.07525653596719173,0.07879659672528647,0.0770265663462391,8.720000000000001e-06,2.4295061226512643e-07
0.07879659672528647,0.08250318162656611,0.08064988917592629,8.830000000000002e-06,2.9920728600754224e-07
0.08250318162656611,0.08638412395191439,0.08444365278924025,9.609999999999998e-06,3.58259682353461e-07
0.08638412395191439,0.090447625459051,0.08841587470548269,1.0939999999999999e-05,3.225161494664489e-07
0.090447625459051,0.09470227371564925,0.09257494958735013,1.1750000000000001e-05,3.5029749261639404e-07
0.09470227371564925,0.099157060247802,0.09692966698172563,1.2549999999999998e-05,3.538478957593725e-07
0.099157060247802,0.10382139954218973,0.10148922989499587,1.359e-05,3.9630585831316464e-07
0.10382139954218973,0.10870514894210906,0.1062632742421494,1.455e-05,2.922612986125018e-07
0.10870514894210906,0.1138186294794084,0.11126188921075873,1.521e-05,4.5659062627259355e-07
0.1138186294794084,0.11917264768635635,0.11649563858288238,1.5850000000000002e-05,4.227883631321911e-07
0.11917264768635635,0.1247785184335382,0.12197558305994727,1.7239999999999998e-05,4.4802343688695756e-07
0.1247785184335382,0.13064808884204515,0.12771330363779168,1.7729999999999995e-05,4.7123950032512684e-07
0.13064808884204515,0.1367937633204908,0.13372092608126798,1.8529999999999997e-05,4.59691925822794e-07
0.1367937633204908,0.1432285297797666,0.1400111465501287,2.0110000000000002e-05,3.485326383568571e-07
0.1432285297797666,0.14996598708093709,0.14659725843035185,2.0299999999999995e-05,5.392896562454503e-07
0.14996598708093709,0.15702037377428169,0.1534931804276094,2.1580000000000003e-05,5.09844747611137e-07
0.15702037377428169,0.16440659819021855,0.1607134859822501,2.248e-05,3.132224981276426e-07
0.16440659819021855,0.1721402699457026,0.16827343406796058,2.2360000000000003e-05,5.12160456627923e-07
0.1721402699457026,0.18023773293268194,0.17618900143919228,2.372e-05,4.6800106837483936e-07
0.18023773293268194,0.1887160998583282,0.18447691639550506,2.4620000000000005e-05,4.1511042707532376e-07
0.1887160998583282,0.19759328841003618,0.19315469413418218,2.4259999999999998e-05,5.51414846856096e-07
0.19759328841003618,0.20688805912162206,0.2022406737658291,2.4600000000000005e-05,4.843380362240002e-07
0.20688805912162206,0.21662005502074405,0.21175405707118305,2.4200000000000002e-05,6.467869303977384e-07
0.21662005502074405,0.226809843141334,0.22171494908103903,2.5420000000000007e-05,4.793050524804906e-07
0.226809843141334,0.2374789579887712,0.2321444005650526,2.5579999999999996e-05,4.872798648278764e-07
0.2374789579887712,0.24864994704965193,0.24306445251921155,2.559e-05,5.42156189057481e-07
0.24864994704965193,0.26034641844233664,0.2544981827459943,2.397e-05,3.646687995062528e-07
0.26034641844233664,0.2725930908089736,0.26646975462565514,2.4219999999999995e-05,4.111265012134362e-07
0.2725930908089736,0.28541584555443905,0.2790044681817063,2.5170000000000005e-05,4.889870482265558e-07
0.28541584555443905,0.29884178154259267,0.29212881354851583,2.334000000000001e-05,5.273518749373877e-07
0.29884178154259267,0.31289927236543963,0.3058705269540162,2.4410000000000002e-05,4.1177461472670736e-07
0.31289927236543963,0.3276180263062294,0.3202586493358345,2.3019999999999996e-05,5.63826214360421e-07
0.3276180263062294,0.34302914912321286,0.33532358771472115,2.251e-05,5.177032612092241e-07
0.34302914912321286,0.3591652097867426,0.35109717945497776,2.2259999999999997e-05,4.794701937208097e-07
0.3591652097867426,0.3760603093086394,0.367612759547691,2.045e-05,3.6571847095819673e-07
0.3760603093086394,0.393750152809287,0.3849052310589632,1.980999999999999e-05,4.781213235152898e-07
0.393750152809287,0.41227212497475624,0.4030111388920216,1.8860000000000002e-05,4.4676615807376943e-07
0.41227212497475624,0.4316653690634254,0.4219687470190908,1.9679999999999998e-05,4.362529847080385e-07
0.4316653690634254,0.4519708696290653,0.4418181193462454,1.8660000000000004e-05,4.723346271447769e-07
0.4519708696290653,0.47323153913521065,0.462601204382138,1.8010000000000002e-05,4.6491038563003175e-07
0.47323153913521065,0.49549230864386395,0.4843619238895373,1.6519999999999998e-05,3.49678423698122e-07
0.49549230864386395,0.5188002227701878,0.5071462657070258,1.5460000000000004e-05,3.8694314827890776e-07
0.5188002227701878,0.5432045391038576,0.5310023809370227,1.515e-05,4.242640687119256e-07
0.5432045391038576,0.5687568323071858,0.5559806857055216,1.545e-05,2.989565185775347e-07
0.5687568323071858,0.5955111031100121,0.5821339677085989,1.4920000000000001e-05,3.98883859454518e-07
0.5955111031100121,0.6235238924317065,0.6095174977708593,1.3879999999999998e-05,3.1560787907360164e-07
0.6235238924317065,0.6528544008714552,0.6381891466515808,1.3940000000000005e-05,3.2668792447838585e-07
0.6528544008714552,0.6835646138193648,0.66820950734541,1.3209999999999997e-05,2.3393375130579325e-07
0.6835646138193648,0.7157194324527797,0.6996420231360723,1.3170000000000001e-05,3.5229012664752584e-07
0.7157194324527797,0.7493868108946533,0.7325531216737164,1.2849999999999999e-05,3.824264635194586e-07
0.7493868108946533,0.7846378998238388,0.7670123553592461,1.2579999999999998e-05,3.121564778547295e-07
0.7846378998238388,0.8215471968407938,0.8030925483323164,1.2959999999999998e-05,4.1525092815469246e-07
0.8215471968407938,0.8601927039064753,0.8408699503736345,1.2500000000000002e-05,4.654746681256287e-07
0.8601927039064753,0.9006560921871456,0.8804243980468105,1.205e-05,4.170831252080727e-07
0.9006560921871456,0.9430228746534638,0.9218394834203048,1.262e-05,3.317001658124373e-07
0.9430228746534638,0.9873825867986226,0.9652027307260431,1.2109999999999998e-05,3.643144246389388e-07
0.9873825867986226,1.0338289758574506,1.0106057813280365,1.238e-05,3.766961640367478e-07
1.0338289758574506,1.0824601989263642,1.0581445873919075,1.2030000000000003e-05,2.7888169534768037e-07
1.0824601989263642,1.1333790304028648,1.1079196146646146,1.1979999999999999e-05,3.175164037757196e-07
1.1333790304028648,1.1866930791829704,1.1600360547929176,1.2549999999999998e-05,3.0242078852707195e-07
1.1866930791829704,1.2425150160755967,1.2146040476292836,1.2859999999999995e-05,3.3356658505712643e-07
1.2425150160755967,1.3009628119144887,1.2717389139950428,1.1840000000000002e-05,3.653993249400781e-07
1.3009628119144887,1.3621599868709182,1.3315613993927036,1.1989999999999997e-05,2.793146374013883e-07
1.3621599868709182,1.4262358714940264,1.3941979291824724,1.1929999999999998e-05,2.920901687264885e-07
1.4262358714940264,1.493325880030483,1.4597808757622546,1.1439999999999996e-05,2.595187854472263e-07
1.493325880030483,1.5635717966010745,1.5284488383157786,1.181e-05,3.218695387886199e-07
1.5635717966010745,1.6371220748390232,1.6003469357200488,1.2089999999999996e-05,4.132896482291057e-07
1.6371220748390232,1.7141321516232484,1.6756271132311358,1.2540000000000002e-05,4.814647789125703e-07
1.7141321516232484,1.7947647755696305,1.7544484635964395,1.167e-05,3.6047422469112385e-07
1.7947647755696305,1.8791903509744645,1.8369775632720475,1.2010000000000002e-05,3.134086788842949e-07
1.8791903509744645,1.9675872979369864,1.9233888244557256,1.262e-05,2.6969118141558483e-07
1.9675872979369864,2.0601424294220303,2.0138648636795082,1.1729999999999998e-05,3.0615900008547066e-07
2.0601424294220303,2.15705134605968,2.1085968877408554,1.1549999999999998e-05,3.6084391824351924e-07
2.15705134605968,2.2585188495162605,2.20778509778797,1.261e-05,3.4462540049547327e-07
2.2585188495162605,2.3647593753102636,2.3116391124132623,1.1769999999999999e-05,3.058185736674625e-07
2.3647593753102636,2.4759974459878986,2.4203784106490813,1.1769999999999999e-05,3.76087312557428e-07
2.4759974459878986,2.592468145615978,2.5342327958019384,1.2069999999999998e-05,3.3245300419758826e-07
2.592468145615978,2.7144176165949068,2.6534428811054425,1.2029999999999998e-05,4.484510378328212e-07
2.7144176165949068,2.842103579841711,2.778260598218309,1.2139999999999997e-05,3.7418800978474555e-07
2.842103579841711,2.9757958794424315,2.908949729642071,1.199e-05,3.3741665637605754e-07
2.9757958794424315,3.1157770529249142,3.0457864661836727,1.256e-05,3.865660788705241e-07
3.1157770529249142,3.2623429283571834,3.1890599906410486,1.191e-05,3.145366963222783e-07
3.2623429283571834,3.415803249533272,3.339073088945228,1.208e-05,3.3376638536557187e-07
3.415803249533272,3.5764823305677327,3.496142790050502,1.2359999999999997e-05,3.5825968235346324e-07
3.5764823305677327,3.74471974128222,3.6606010359249765,1.1410000000000001e-05,2.7305371876854535e-07
3.74471974128222,3.920871024832596,3.832795383057408,1.2769999999999995e-05,3.2879831710843336e-07
3.920871024832596,4.105308449093149,4.013089736962873,1.165e-05,3.2691742076554925e-07
4.105308449093149,4.2984217933858595,4.201865121239504,1.1879999999999998e-05,3.939966158907143e-07
4.2984217933858595,4.500619172217357,4.399520482801608,1.277e-05,2.88646265637833e-07
4.500619172217357,4.712327897764348,4.606473534990853,1.16e-05,3.5968736424845163e-07
4.712327897764348,4.93399538293033,4.8231616403473385,1.2470000000000001e-05,4.0499999999999686e-07
4.93399538293033,5.166090086881981,5.050042734906155,1.2249999999999998e-05,3.5029749261639865e-07
5.166090086881981,5.409102505063519,5.28759629597275,1.1580000000000001e-05,3.5960626616712996e-07
5.409102505063519,5.663546205781223,5.536324355422371,1.168e-05,3.480660856791409e-07
5.663546205781223,5.9299589155488235,5.796752560665023,1.156e-05,3.5539883698928046e-07
5.9299589155488235,6.2089036554874255,6.0694312855181245,1.168e-05,3.5576209279048685e-07
6.2089036554874255,6.5009699311815945,6.35493679333451,1.096e-05,4.5154364868378485e-07
6.5009699311815945,6.806774978506158,6.653872454843876,8.669999999999998e-06,3.5405978779484974e-07
6.806774978506158,7.1269650680565935,6.966870023281375,1.646e-05,3.210269978262399e-07
7.1269650680565935,7.462216870939709,7.2945909694981514,2.1719999999999995e-05,5.666642156809822e-07
7.462216870939709,7.8132388888109885,7.637727879875349,2.2659999999999996e-05,4.3466462167208304e-07
7.8132388888109885,8.180772951180769,7.997005919995878,2.3079999999999992e-05,5.561624462930577e-07
8.180772951180769,8.565595783153572,8.37318436716717,2.3349999999999995e-05,5.149838185160254e-07
8.565595783153572,8.96852064691375,8.76705821503366,2.327e-05,4.464956140135399e-07
8.96852064691375,9.39039906042647,9.17945985367011,2.258e-05,4.90900533034267e-07
9.39039906042647,9.832122596986238,9.611260828706353,2.2599999999999994e-05,4.339738855430662e-07
9.832122596986238,10.294624769416025,10.063373683201132,2.3570000000000003e-05,5.21919534027984e-07
10.294624769416025,10.778883002898993,10.53675388615751,2.3659999999999997e-05,4.2053537306628735e-07
10.778883002898993,11.285920700611948,11.03240185175547,2.2580000000000004e-05,4.9889878733065e-07
11.285920700611948,11.816809406526113,11.55136505356903,2.388000000000001e-05,4.926797472327357e-07
11.816809406526113,12.372671069945815,12.094740238235964,2.4249999999999997e-05,5.228129047119425e-07
12.372671069945815,12.954680416570856,12.663675743258334,2.3740000000000003e-05,5.038352905464146e-07
12.954680416570856,13.56406743109347,13.259373923832163,2.4340000000000004e-05,5.921148537234887e-07
13.56406743109347,14.202119956576416,13.883093693834944,2.452e-05,5.603049764785838e-07
14.202119956576416,14.87018641610557,14.536153186340993,2.3789999999999998e-05,4.408041893327899e-07
14.87018641610557,15.569678662468833,15.219932539287202,2.3829999999999997e-05,4.718580294961617e-07
15.569678662468833,16.30207496188367,15.93587681217625,2.4050000000000002e-05,3.619967771495515e-07
16.30207496188367,17.068923118078924,16.685499039981295,2.3230000000000003e-05,4.2227558142362135e-07
17.068923118078924,17.871843743333184,17.470383430706054,2.353e-05,4.519218221477325e-07
