energy low [eV],energy high [eV],energy mid [eV],mean,std. dev.
0.001,0.0010470399110535467,0.0010235199555267732,0.0,0.0
0.0010470399110535467,0.0010962925753390188,0.0010716662431962828,0.0,0.0
0.0010962925753390188,0.0011478620805716298,0.0011220773279553243,0.0,0.0
0.0011478620805716298,0.001201857410743458,0.0011748597456575438,0.0,0.0
0.001201857410743458,0.0012583926764438763,0.0012301250435936672,0.0,0.0
0.0012583926764438763,0.0013175873560142307,0.0012879900162290534,0.0,0.0
0.0013175873560142307,0.0013795665480464177,0.0013485769520303241,0.0,0.0
0.0013795665480464177,0.0014444612357589696,0.0014120138919026938,0.0,0.0
0.0014444612357589696,0.0015124085638093675,0.0014784348997841684,0.0,0.0
0.0015124085638093675,0.0015835521281275823,0.0015479803459684748,0.0,0.0
0.0015835521281275823,0.0016580422793833582,0.0016207972037554702,0.0,0.0
0.0016580422793833582,0.0017360364407285694,0.0016970393600559638,0.0,0.0
0.0017360364407285694,0.0018176994404861568,0.001776867940607363,0.0,0.0
0.0018176994404861568,0.001903203860488707,0.0018604516504874319,0.0,0.0
0.001903203860488707,0.0019927304008028625,0.0019479671306457847,0.0,0.0
0.0019927304008028625,0.0020864682616103273,0.0020395993312065947,0.0,0.0
0.0020864682616103273,0.0021846155430525253,0.002135541902331426,0.0,0.0
0.0021846155430525253,0.0022873796638839114,0.002235997603468218,0.0,0.0
0.0022873796638839114,0.0023949777998187017,0.0023411787318513063,0.0,0.0
0.0023949777998187017,0.0025076373424973925,0.002451307571158047,0.0,0.0
0.0025076373424973925,0.002625596380043022,0.002566616861270207,0.0,0.0
0.002625596380043022,0.0027491042002227594,0.0026873502901328906,0.0,0.0
0.0027491042002227594,0.0028784218172781696,0.0028137630087504643,0.0,0.0
0.0028784218172781696,0.0030138225235375226,0.002946122170407846,0.0,0.0
0.0030138225235375226,0.003155592466975903,0.0030847074952567127,0.0,0.0
0.003155592466975903,0.003304031255943691,0.0032298118614597967,0.0,0.0
0.003304031255943691,0.0034594525923414203,0.0033817419241425556,0.0,0.0
0.0034594525923414203,0.0036221849345791216,0.003540818763460271,0.0,0.0
0.0036221849345791216,0.00379257219172122,0.003707378563150171,0.0,0.0
0.00379257219172122,0.003970974450283936,0.0038817733210025785,0.0,0.0
0.003970974450283936,0.004157768735221199,0.004064371592752568,0.0,0.0
0.004157768735221199,0.004353349806707221,0.00425555927096421,0.0,0.0
0.004353349806707221,0.004558130994399704,0.0044557404005534625,0.0,0.0
0.004558130994399704,0.0047725450709466795,0.004665338032673192,0.0,0.0
0.0047725450709466795,0.004997045166583053,0.004884795118764867,0.0,0.0
0.004997045166583053,0.005232105726749675,0.005114575446666364,0.0,0.0
0.005232105726749675,0.005478223514758732,0.005355164620754204,0.0,0.0
0.005478223514758732,0.00573591866162443,0.005607071088191581,0.0,0.0
0.00573591866162443,0.0060057357652776215,0.005870827213451026,0.0,0.0
0.0060057357652776215,0.006288245041487384,0.0061469904033825025,0.0,0.0
0.006288245041487384,0.006584043528921856,0.00643614428520462,0.0,0.0
0.006584043528921856,0.00689375635089502,0.006738899939908438,0.0,0.0
0.00689375635089502,0.0072180380364659435,0.007055897193680482,0.0,0.0
0.0072180380364659435,0.007557573903682418,0.007387805970074181,0.0,0.0
0.007557573903682418,0.007913081507892243,0.00773532770578733,0.0,0.0
0.007913081507892243,0.00828531215818296,0.0080991968330376,0.0,0.0
0.00828531215818296,0.008675052505154754,0.008480182331668857,0.0,0.0
0.008675052505154754,0.00908312620338208,0.008879089354268416,0.0,0.0
0.00908312620338208,0.009510395652077312,0.009296760927729696,0.0,0.0
0.009510395652077312,0.009957763817635065,0.00973407973485619,0.0,0.0
0.009957763817635065,0.010426176141908838,0.010191969979771951,0.0,0.0
0.010426176141908838,0.01091662254025284,0.010671399341080839,0.0,0.0
0.01091662254025284,0.011430139493551475,0.011173381016902156,0.0,0.0
0.011430139493551475,0.011967812238657767,0.01169897586610462,0.0,0.0
0.011967812238657767,0.012530777061869775,0.01224929465026377,0.0,0.0
0.012530777061869775,0.01312022370029195,0.012825500381080861,0.0,0.0
0.01312022370029195,0.013737397856156318,0.013428810778224134,0.0,0.0
0.013737397856156318,0.014383603829417092,0.014060500842786705,0.0,0.0
0.014383603829417092,0.015060207274182318,0.014721905551799705,0.0,0.0
0.015060207274182318,0.01576863808480783,0.015414422679495074,0.0,0.0
0.01576863808480783,0.016510393417752758,0.016139515751280295,0.0,0.0
0.016510393417752758,0.017287040855582907,0.01689871713666783,0.0,0.0
0.017287040855582907,0.018100221719808556,0.01769363128769573,0.0,0.0
0.018100221719808556,0.01895165453955782,0.018525938129683187,0.0,0.0
0.01895165453955782,0.019843138683416164,0.01939739661148699,0.0,0.0
0.019843138683416164,0.020776558162107252,0.020309848422761706,0.0,0.0
0.020776558162107252,0.021753885610051614,0.021265221886079433,0.0,0.0
0.021753885610051614,0.02277718645421747,0.02226553603213454,0.0,0.0
0.02277718645421747,0.023848623279073906,0.023312904866645688,0.0,0.0
0.023848623279073906,0.02497046039687107,0.02440954183797249,0.0,0.0
0.02497046039687107,0.026145068632905992,0.02555776451488853,0.0,0.0
0.026145068632905992,0.02737493033588676,0.026759999484396377,0.0,0.0
0.02737493033588676,0.02866264462398391,0.028018787479935338,0.0,0.0
0.02866264462398391,0.03001093287765553,0.02933678875081972,0.0,0.0
0.03001093287765553,0.031422644490854405,0.030716788684254967,0.0,0.0
0.031422644490854405,0.03290076289277141,0.03216170369181291,0.0,0.0
0.03290076289277141,0.034448411852841206,0.033674587372806306,0.0,0.0
0.034448411852841206,0.0360688620823348,0.035258636967588006,0.0,0.0
0.0360688620823348,0.03776553814649047,0.03691720011441263,0.0,0.0
0.03776553814649047,0.039542025701790676,0.03865378192414057,0.0,0.0
0.039542025701790676,0.041402079073679966,0.040472052387735324,0.0,0.0
0.041402079073679966,0.04334962919073777,0.04237585413220887,0.0,0.0
0.04334962919073777,0.04538879189207431,0.04436921054140604,0.0,0.0
0.04538879189207431,0.04752387662550542,0.046456334258789866,0.0,0.0
0.04752387662550542,0.04975939555488892,0.04864163609019717,0.0,0.0
0.04975939555488892,0.052100073095869136,0.05092973432537903,0.0,0.0
0.052100073095869136,0.05455085590018209,0.05332546449802561,0.0,0.0
0.05455085590018209,0.057116923309621495,0.05583388960490179,0.0,0.0
0.057116923309621495,0.059803698301758336,0.05846031080568992,0.0,0.0
0.059803698301758336,0.06261685895054618,0.06121027862615226,0.0,0.0
0.06261685895054618,0.06556235042603231,0.06408960468828925,0.0,0.0
0.06556235042603231,0.06864639755853433,0.06710437399228332,0.0,0.0
0.06864639755853433,0.07187551799383418,0.07026095777618425,0.0,0.0
0.07187551799383418,0.07525653596719173,0.07356602698051296,0.0,0.0
0.07525653596719173,0.07879659672528647,0.0770265663462391,0.0,0.0
0.07879659672528647,0.08250318162656611,0.08064988917592629,0.0,0.0
0.08250318162656611,0.08638412395191439,0.08444365278924025,0.0,0.0
0.08638412395191439,0.090447625459051,0.08841587470548269,0.0,0.0
0.090447625459051,0.09470227371564925,0.09257494958735013,0.0,0.0
0.09470227371564925,0.099157060247802,0.09692966698172563,0.0,0.0
0.099157060247802,0.10382139954218973,0.10148922989499587,0.0,0.0
0.10382139954218973,0.10870514894210906,0.1062632742421494,0.0,0.0
0.10870514894210906,0.1138186294794084,0.11126188921075873,0.0,0.0
0.1138186294794084,0.11917264768635635,0.11649563858288238,0.0,0.0
0.11917264768635635,0.1247785184335382,0.12197558305994727,0.0,0.0
0.1247785184335382,0.13064808884204515,0.12771330363779168,2e-08,1.3844373104863458e-08
0.13064808884204515,0.1367937633204908,0.13372092608126798,0.0,0.0
0.1367937633204908,0.1432285297797666,0.1400111465501287,0.0,0.0
0.1432285297797666,0.14996598708093709,0.14659725843035185,0.0,0.0
0.14996598708093709,0.15702037377428169,0.1534931804276094,0.0,0.0
0.15702037377428169,0.16440659819021855,0.1607134859822501,0.0,0.0
0.16440659819021855,0.1721402699457026,0.16827343406796058,1e-08,1e-08
0.1721402699457026,0.18023773293268194,0.17618900143919228,2e-08,1.3844373104863458e-08
0.18023773293268194,0.1887160998583282,0.18447691639550506,1e-08,1e-08
0.1887160998583282,0.19759328841003618,0.19315469413418218,0.0,0.0
0.19759328841003618,0.20688805912162206,0.2022406737658291,1e-08,1e-08
0.20688805912162206,0.21662005502074405,0.21175405707118305,0.0,0.0
0.21662005502074405,0.226809843141334,0.22171494908103903,1e-08,1e-08
0.226809843141334,0.2374789579887712,0.2321444005650526,2e-08,1.3844373104863458e-08
0.2374789579887712,0.24864994704965193,0.24306445251921155,4e-08,2.362907813126304e-08
0.24864994704965193,0.26034641844233664,0.2544981827459943,2e-08,1.3844373104863458e-08
0.26034641844233664,0.2725930908089736,0.26646975462565514,1e-08,1e-08
0.2725930908089736,0.28541584555443905,0.2790044681817063,1e-08,1e-08
0.28541584555443905,0.29884178154259267,0.29212881354851583,2e-08,1.3844373104863458e-08
0.29884178154259267,0.31289927236543963,0.3058705269540162,4e-08,2.362907813126304e-08
0.31289927236543963,0.3276180263062294,0.3202586493358345,5e-08,2.5e-08
0.3276180263062294,0.34302914912321286,0.33532358771472115,2e-08,1.3844373104863458e-08
0.34302914912321286,0.3591652097867426,0.35109717945497776,2e-08,1.3844373104863458e-08
0.3591652097867426,0.3760603093086394,0.367612759547691,4e-08,1.9364916731037084e-08
0.3760603093086394,0.393750152809287,0.3849052310589632,8e-08,3.13581462037113e-08
0.393750152809287,0.41227212497475624,0.4030111388920216,2e-08,1.3844373104863458e-08
0.41227212497475624,0.4316653690634254,0.4219687470190908,5e-08,2.0412414523193148e-08
0.4316653690634254,0.4519708696290653,0.4418181193462454,2e-08,1.3844373104863458e-08
0.4519708696290653,0.47323153913521065,0.462601204382138,6e-08,2.179449471770337e-08
0.47323153913521065,0.49549230864386395,0.4843619238895373,8e-08,2.7838821814150107e-08
0.49549230864386395,0.5188002227701878,0.5071462657070258,6e-08,2.179449471770337e-08
0.5188002227701878,0.5432045391038576,0.5310023809370227,7.999999999999999e-08,2.886751345948129e-08
0.5432045391038576,0.5687568323071858,0.5559806857055216,6e-08,2.6140645235596872e-08
0.5687568323071858,0.5955111031100121,0.5821339677085989,1.0000000000000001e-07,3.227486121839514e-08
0.5955111031100121,0.6235238924317065,0.6095174977708593,9e-08,3.1885210782848316e-08
0.6235238924317065,0.6528544008714552,0.6381891466515808,1.0000000000000001e-07,3.535533905932738e-08
0.6528544008714552,0.6835646138193648,0.66820950734541,8e-08,2.3804761428476166e-08
0.6835646138193648,0.7157194324527797,0.6996420231360723,1.0000000000000001e-07,2.8867513459481285e-08
0.7157194324527797,0.7493868108946533,0.7325531216737164,1.8000000000000005e-07,4.213074886588178e-08
0.7493868108946533,0.7846378998238388,0.7670123553592461,1.2000000000000002e-07,3.265986323710904e-08
0.7846378998238388,0.8215471968407938,0.8030925483323164,1.08389336e-07,2.5009394738529012e-08
0.8215471968407938,0.8601927039064753,0.8408699503736345,2.1000000000000005e-07,4.716990566028301e-08
0.8601927039064753,0.9006560921871456,0.8804243980468105,2.0000000000000002e-07,4.3301270189221924e-08
0.9006560921871456,0.9430228746534638,0.9218394834203048,1.84564104e-07,4.1561634776832545e-08
0.9430228746534638,0.9873825867986226,0.9652027307260431,2.4000000000000003e-07,5.082650227325636e-08
0.9873825867986226,1.0338289758574506,1.0106057813280365,2.44564104e-07,4.804531595611394e-08
1.0338289758574506,1.0824601989263642,1.0581445873919075,1.8677867200000004e-07,4.099158633791066e-08
1.0824601989263642,1.1333790304028648,1.1079196146646146,1.9456410400000003e-07,4.4463298333076345e-08
1.1333790304028648,1.1866930791829704,1.1600360547929176,2.600000000000001e-07,4.4440972086577936e-08
1.1866930791829704,1.2425150160755967,1.2146040476292836,2.5751754400000003e-07,5.495365240648707e-08
1.2425150160755967,1.3009628119144887,1.2717389139950428,3.3859967950621535e-07,4.9581145182097044e-08
1.3009628119144887,1.3621599868709182,1.3315613993927036,3.79128208e-07,7.152842517459705e-08
1.3621599868709182,1.4262358714940264,1.3941979291824724,2.634280477531077e-07,4.5095362116366575e-08
1.4262358714940264,1.493325880030483,1.4597808757622546,2.7912820800000005e-07,5.048981753407907e-08
1.493325880030483,1.5635717966010745,1.5284488383157786,5.8e-07,8.1955272354295e-08
1.5635717966010745,1.6371220748390232,1.6003469357200488,5.59128208e-07,7.47326500948686e-08
1.6371220748390232,1.7141321516232484,1.6756271132311358,5.699999999999999e-07,7.76208734813001e-08
1.7141321516232484,1.7947647755696305,1.7544484635964395,5.442998397531077e-07,8.015239041467389e-08
1.7947647755696305,1.8791903509744645,1.8369775632720475,4.3456410399999995e-07,5.825835692833677e-08
1.8791903509744645,1.9675872979369864,1.9233888244557256,5.899999999999999e-07,6.683312551921145e-08
1.9675872979369864,2.0601424294220303,2.0138648636795082,6.7e-07,7.708220719898115e-08
2.0601424294220303,2.15705134605968,2.1085968877408554,6.200000000000001e-07,8.727351641057362e-08
2.15705134605968,2.2585188495162605,2.20778509778797,5.7e-07,6.576473218982953e-08
2.2585188495162605,2.3647593753102636,2.3116391124132623,7.227997827928386e-07,8.826006028022624e-08
2.3647593753102636,2.4759974459878986,2.4203784106490813,6.5e-07,7.438637868140469e-08
2.4759974459878986,2.592468145615978,2.5342327958019384,8.7e-07,8.108637370113431e-08
2.592468145615978,2.7144176165949068,2.6534428811054425,7.245641039999999e-07,8.390151106300863e-08
2.7144176165949068,2.842103579841711,2.778260598218309,9.067786719999999e-07,9.171401868761245e-08
2.842103579841711,2.9757958794424315,2.908949729642071,8.329534399999999e-07,9.247252251530803e-08
2.9757958794424315,3.1157770529249142,3.0457864661836727,7.345641039999998e-07,8.066058656694007e-08
3.1157770529249142,3.2623429283571834,3.1890599906410486,9.245641040000001e-07,8.332216491020143e-08
3.2623429283571834,3.415803249533272,3.339073088945228,9.500000000000001e-07,8.607167555783569e-08
3.415803249533272,3.5764823305677327,3.496142790050502,1.05e-06,1.0622303579418789e-07
3.5764823305677327,3.74471974128222,3.6606010359249765,9.600000000000001e-07,9.036961141150634e-08
3.74471974128222,3.920871024832596,3.832795383057408,1.04e-06,1.095825411885184e-07
3.920871024832596,4.105308449093149,4.013089736962873,9.44492317082154e-07,9.072317022627889e-08
4.105308449093149,4.2984217933858595,4.201865121239504,9.200000000000001e-07,1.1128042655082399e-07
4.2984217933858595,4.500619172217357,4.399520482801608,2.2620727305460164e-06,1.2584416570736498e-07
4.500619172217357,4.712327897764348,4.606473534990853,2.761062863093461e-06,1.9138894178683605e-07
4.712327897764348,4.93399538293033,4.8231616403473385,2.8781214479999995e-06,1.5191862435742219e-07
4.93399538293033,5.166090086881981,5.050042734906155,3.0745641039999996e-06,1.5218374080473524e-07
5.166090086881981,5.409102505063519,5.28759629597275,3.349119524687185e-06,1.8433683541999618e-07
5.409102505063519,5.663546205781223,5.536324355422371,3.3727825444106457e-06,1.928818057188183e-07
5.663546205781223,5.9299589155488235,5.796752560665023,3.4826990102218038e-06,1.9193894614307368e-07
5.9299589155488235,6.2089036554874255,6.0694312855181245,3.4248976569335997e-06,2.0682448153653912e-07
6.2089036554874255,6.5009699311815945,6.35493679333451,3.4828548379544906e-06,2.1999192582492768e-07
6.5009699311815945,6.806774978506158,6.653872454843876,3.4713427760000007e-06,1.9215546307305903e-07
6.806774978506158,7.1269650680565935,6.966870023281375,3.333692312e-06,1.7115569876302765e-07
7.1269650680565935,7.462216870939709,7.2945909694981514,3.748389336e-06,2.1263783237825095e-07
7.462216870939709,7.8132388888109885,7.637727879875349,4.104564103999999e-06,2.4660796630547665e-07
7.8132388888109885,8.180772951180769,7.997005919995878,4.864855663138175e-06,1.8889985374710548e-07
8.180772951180769,8.565595783153572,8.37318436716717,4.636778672000002e-06,2.781091899063654e-07
8.565595783153572,8.96852064691375,8.76705821503366,5.397517543999999e-06,2.715816342987702e-07
8.96852064691375,9.39039906042647,9.17945985367011,5.251342775999999e-06,2.232708190863487e-07
9.39039906042647,9.832122596986238,9.611260828706353,5.227044154929298e-06,2.2077121510056091e-07
9.832122596986238,10.294624769416025,10.063373683201132,5.407747830062092e-06,2.368660510042454e-07
10.294624769416025,10.778883002898993,10.53675388615751,5.659923974504704e-06,2.5995800790197355e-07
10.778883002898993,11.285920700611948,11.03240185175547,5.325382859406947e-06,2.0286063934366522e-07
11.285920700611948,11.816809406526113,11.55136505356903,5.826778672000002e-06,2.843340746091315e-07
11.816809406526113,12.372671069945815,12.094740238235964,5.839707182612891e-06,2.504938794781658e-07
12.372671069945815,12.954680416570856,12.663675743258334,5.57292851061289e-06,2.6742366726480236e-07
12.954680416570856,13.56406743109347,13.259373923832163,5.847517544e-06,2.5562922428468683e-07
13.56406743109347,14.202119956576416,13.883093693834944,6.674401514815962e-06,2.664673226246834e-07
14.202119956576416,14.87018641610557,14.536153186340993,6.7520816480000005e-06,2.755919868743033e-07
14.87018641610557,15.569678662468833,15.219932539287202,6.358559367305688e-06,2.0694805315019558e-07
15.569678662468833,16.30207496188367,15.93587681217625,6.468867043579997e-06,3.5764391427007167e-07
16.30207496188367,17.068923118078924,16.685499039981295,6.474564104000001e-06,2.22828212229338e-07
17.068923118078924,17.871843743333184,17.470383430706054,6.20824179059004e-06,2.358858873610124e-07
17.871843743333184,18.71253368338246,18.292188713357824,3.6365276512422216e-06,1.7199173746131158e-07
18.71253368338246,19.592769603435265,19.152651643408863,2.447474076550749e-06,1.6297313156792904e-07
19.592769603435265,20.51441174287349,20.05359067315438,8.931957664513243e-06,2.91539069886294e-07
20.51441174287349,21.479407846574095,20.99690979472379,9.05255361278234e-06,2.656574813437896e-07
21.479407846574095,22.48979728115979,21.984602563866943,2.099468717054535e-05,4.1409634335333805e-07
22.48979728115979,23.54771534487784,23.018756313018816,2.2436565016310953e-05,5.572196196193082e-07
23.54771534487784,24.65539778021513,24.101556562546484,2.359968071509494e-05,4.676154802457434e-07
24.65539778021513,25.81518549878626,25.235291639500694,2.3957764566480732e-05,5.483148338095111e-07
25.81518549878626,27.029529528479973,26.422357513633116,2.4628492453729486e-05,5.206088396571502e-07
27.029529528479973,28.30099619331888,27.665262860899425,2.654700333495583e-05,6.040789748521813e-07
28.30099619331888,29.632272536979364,28.966634365149122,3.152147051962179e-05,6.150163160977611e-07
29.632272536979364,31.026172001433324,30.329222269206344,3.3440703243609205e-05,5.040157265542158e-07
31.026172001433324,32.48564037271279,31.755906187073055,3.3231758108189466e-05,4.967881612510848e-07
32.48564037271279,34.0137620063627,33.249701189537745,3.355177534341706e-05,6.127921573164625e-07
34.0137620063627,35.613766345738505,34.8137641760506,3.379796943667446e-05,7.250361494934137e-07
35.613766345738505,37.28903474692383,36.45140054633117,3.455799763164201e-05,5.64297045662229e-07
37.28903474692383,39.043107624691736,38.16607118580778,3.640808373145541e-05,7.346887784446321e-07
39.043107624691736,40.87969193461129,39.961399779651515,3.552799196523137e-05,5.390528108316431e-07
40.87969193461129,42.80266900711179,41.84118047086154,3.572601977734807e-05,5.943106619668702e-07
42.80266900711179,44.81610275006072,43.809385878586255,3.660184364615284e-05,5.595509023321291e-07
44.81610275006072,46.924248237190184,45.87017549362545,3.2180449992129856e-05,5.897634164610318e-07
46.924248237190184,49.13156070052205,48.02790446885612,4.097417914719628e-05,6.047327256013664e-07
49.13156070052205,51.442704945796535,50.2871328231593,4.573443392353461e-05,6.755910260850996e-07
51.442704945796535,53.862565210800646,52.65263507829859,4.6917610422380406e-05,8.251749868785938e-07
53.862565210800646,56.39625548743256,55.129410349116604,4.655630085362244e-05,6.576433216172321e-07
