energy low [eV],energy high [eV],energy mid [eV],mean,std. dev.
0.001,0.0010470399110535467,0.0010235199555267732,0.0,0.0
0.0010470399110535467,0.0010962925753390188,0.0010716662431962828,0.0,0.0
0.0010962925753390188,0.0011478620805716298,0.0011220773279553243,0.0,0.0
0.0011478620805716298,0.001201857410743458,0.0011748597456575438,0.0,0.0
0.001201857410743458,0.0012583926764438763,0.0012301250435936672,0.0,0.0
0.0012583926764438763,0.0013175873560142307,0.0012879900162290534,0.0,0.0
0.0013175873560142307,0.0013795665480464177,0.0013485769520303241,0.0,0.0
0.0013795665480464177,0.0014444612357589696,0.0014120138919026938,0.0,0.0
0.0014444612357589696,0.0015124085638093675,0.0014784348997841684,0.0,0.0
0.0015124085638093675,0.0015835521281275823,0.0015479803459684748,0.0,0.0
0.0015835521281275823,0.0016580422793833582,0.0016207972037554702,0.0,0.0
0.0016580422793833582,0.0017360364407285694,0.0016970393600559638,0.0,0.0
0.0017360364407285694,0.0018176994404861568,0.001776867940607363,0.0,0.0
0.0018176994404861568,0.001903203860488707,0.0018604516504874319,0.0,0.0
0.001903203860488707,0.0019927304008028625,0.0019479671306457847,0.0,0.0
0.0019927304008028625,0.0020864682616103273,0.0020395993312065947,0.0,0.0
0.0020864682616103273,0.0021846155430525253,0.002135541902331426,0.0,0.0
0.0021846155430525253,0.0022873796638839114,0.002235997603468218,0.0,0.0
0.0022873796638839114,0.0023949777998187017,0.0023411787318513063,0.0,0.0
0.0023949777998187017,0.0025076373424973925,0.002451307571158047,0.0,0.0
0.0025076373424973925,0.002625596380043022,0.002566616861270207,0.0,0.0
0.002625596380043022,0.0027491042002227594,0.0026873502901328906,0.0,0.0
0.0027491042002227594,0.0028784218172781696,0.0028137630087504643,0.0,0.0
0.0028784218172781696,0.0030138225235375226,0.002946122170407846,0.0,0.0
0.0030138225235375226,0.003155592466975903,0.0030847074952567127,0.0,0.0
0.003155592466975903,0.003304031255943691,0.0032298118614597967,0.0,0.0
0.003304031255943691,0.0034594525923414203,0.0033817419241425556,0.0,0.0
0.0034594525923414203,0.0036221849345791216,0.003540818763460271,0.0,0.0
0.0036221849345791216,0.00379257219172122,0.003707378563150171,0.0,0.0
0.00379257219172122,0.003970974450283936,0.0038817733210025785,0.0,0.0
0.003970974450283936,0.004157768735221199,0.004064371592752568,0.0,0.0
0.004157768735221199,0.004353349806707221,0.00425555927096421,0.0,0.0
0.004353349806707221,0.004558130994399704,0.0044557404005534625,0.0,0.0
0.004558130994399704,0.0047725450709466795,0.004665338032673192,0.0,0.0
0.0047725450709466795,0.004997045166583053,0.004884795118764867,0.0,0.0
0.004997045166583053,0.005232105726749675,0.005114575446666364,0.0,0.0
0.005232105726749675,0.005478223514758732,0.005355164620754204,0.0,0.0
0.005478223514758732,0.00573591866162443,0.005607071088191581,0.0,0.0
0.00573591866162443,0.0060057357652776215,0.005870827213451026,0.0,0.0
0.0060057357652776215,0.006288245041487384,0.0061469904033825025,0.0,0.0
0.006288245041487384,0.006584043528921856,0.00643614428520462,0.0,0.0
0.006584043528921856,0.00689375635089502,0.006738899939908438,0.0,0.0
0.00689375635089502,0.0072180380364659435,0.007055897193680482,0.0,0.0
0.0072180380364659435,0.007557573903682418,0.007387805970074181,0.0,0.0
0.007557573903682418,0.007913081507892243,0.00773532770578733,0.0,0.0
0.007913081507892243,0.00828531215818296,0.0080991968330376,0.0,0.0
0.00828531215818296,0.008675052505154754,0.008480182331668857,0.0,0.0
0.008675052505154754,0.00908312620338208,0.008879089354268416,0.0,0.0
0.00908312620338208,0.009510395652077312,0.009296760927729696,0.0,0.0
0.009510395652077312,0.009957763817635065,0.00973407973485619,0.0,0.0
0.009957763817635065,0.010426176141908838,0.010191969979771951,0.0,0.0
0.010426176141908838,0.01091662254025284,0.010671399341080839,0.0,0.0
0.01091662254025284,0.011430139493551475,0.011173381016902156,0.0,0.0
0.011430139493551475,0.011967812238657767,0.01169897586610462,0.0,0.0
0.011967812238657767,0.012530777061869775,0.01224929465026377,0.0,0.0
0.012530777061869775,0.01312022370029195,0.012825500381080861,0.0,0.0
0.01312022370029195,0.013737397856156318,0.013428810778224134,0.0,0.0
0.013737397856156318,0.014383603829417092,0.014060500842786705,0.0,0.0
0.014383603829417092,0.015060207274182318,0.014721905551799705,0.0,0.0
0.015060207274182318,0.01576863808480783,0.015414422679495074,0.0,0.0
0.01576863808480783,0.016510393417752758,0.016139515751280295,0.0,0.0
0.016510393417752758,0.017287040855582907,0.01689871713666783,0.0,0.0
0.017287040855582907,0.018100221719808556,0.01769363128769573,0.0,0.0
0.018100221719808556,0.01895165453955782,0.018525938129683187,0.0,0.0
0.01895165453955782,0.019843138683416164,0.01939739661148699,0.0,0.0
0.019843138683416164,0.020776558162107252,0.020309848422761706,0.0,0.0
0.020776558162107252,0.021753885610051614,0.021265221886079433,0.0,0.0
0.021753885610051614,0.02277718645421747,0.02226553603213454,0.0,0.0
0.02277718645421747,0.023848623279073906,0.023312904866645688,0.0,0.0
0.023848623279073906,0.02497046039687107,0.02440954183797249,0.0,0.0
0.02497046039687107,0.026145068632905992,0.02555776451488853,0.0,0.0
0.026145068632905992,0.02737493033588676,0.026759999484396377,0.0,0.0
0.02737493033588676,0.02866264462398391,0.028018787479935338,0.0,0.0
0.02866264462398391,0.03001093287765553,0.02933678875081972,0.0,0.0
0.03001093287765553,0.031422644490854405,0.030716788684254967,0.0,0.0
0.031422644490854405,0.03290076289277141,0.03216170369181291,0.0,0.0
0.03290076289277141,0.034448411852841206,0.033674587372806306,0.0,0.0
0.034448411852841206,0.0360688620823348,0.035258636967588006,0.0,0.0
0.0360688620823348,0.03776553814649047,0.03691720011441263,0.0,0.0
0.03776553814649047,0.039542025701790676,0.03865378192414057,0.0,0.0
0.039542025701790676,0.041402079073679966,0.040472052387735324,0.0,0.0
0.041402079073679966,0.04334962919073777,0.04237585413220887,0.0,0.0
0.04334962919073777,0.04538879189207431,0.04436921054140604,0.0,0.0
0.04538879189207431,0.04752387662550542,0.046456334258789866,0.0,0.0
0.04752387662550542,0.04975939555488892,0.04864163609019717,0.0,0.0
0.04975939555488892,0.052100073095869136,0.05092973432537903,0.0,0.0
0.052100073095869136,0.05455085590018209,0.05332546449802561,0.0,0.0
0.05455085590018209,0.057116923309621495,0.05583388960490179,0.0,0.0
0.057116923309621495,0.059803698301758336,0.05846031080568992,0.0,0.0
0.059803698301758336,0.06261685895054618,0.06121027862615226,0.0,0.0
0.06261685895054618,0.06556235042603231,0.06408960468828925,0.0,0.0
0.06556235042603231,0.06864639755853433,0.06710437399228332,0.0,0.0
0.06864639755853433,0.07187551799383418,0.07026095777618425,0.0,0.0
0.07187551799383418,0.07525653596719173,0.07356602698051296,0.0,0.0
0.07525653596719173,0.07879659672528647,0.0770265663462391,0.0,0.0
0.07879659672528647,0.08250318162656611,0.08064988917592629,0.0,0.0
0.08250318162656611,0.08638412395191439,0.08444365278924025,0.0,0.0
0.08638412395191439,0.090447625459051,0.08841587470548269,0.0,0.0
0.090447625459051,0.09470227371564925,0.09257494958735013,0.0,0.0
0.09470227371564925,0.099157060247802,0.09692966698172563,0.0,0.0
0.099157060247802,0.10382139954218973,0.10148922989499587,0.0,0.0
0.10382139954218973,0.10870514894210906,0.1062632742421494,0.0,0.0
0.10870514894210906,0.1138186294794084,0.11126188921075873,0.0,0.0
0.1138186294794084,0.11917264768635635,0.11649563858288238,1e-08,1e-08
0.11917264768635635,0.1247785184335382,0.12197558305994727,0.0,0.0
0.1247785184335382,0.13064808884204515,0.12771330363779168,0.0,0.0
0.13064808884204515,0.1367937633204908,0.13372092608126798,0.0,0.0
0.1367937633204908,0.1432285297797666,0.1400111465501287,0.0,0.0
0.1432285297797666,0.14996598708093709,0.14659725843035185,0.0,0.0
0.14996598708093709,0.15702037377428169,0.1534931804276094,0.0,0.0
0.15702037377428169,0.16440659819021855,0.1607134859822501,0.0,0.0
0.16440659819021855,0.1721402699457026,0.16827343406796058,0.0,0.0
0.1721402699457026,0.18023773293268194,0.17618900143919228,0.0,0.0
0.18023773293268194,0.1887160998583282,0.18447691639550506,0.0,0.0
0.1887160998583282,0.19759328841003618,0.19315469413418218,0.0,0.0
0.19759328841003618,0.20688805912162206,0.2022406737658291,0.0,0.0
0.20688805912162206,0.21662005502074405,0.21175405707118305,1e-08,1e-08
0.21662005502074405,0.226809843141334,0.22171494908103903,0.0,0.0
0.226809843141334,0.2374789579887712,0.2321444005650526,0.0,0.0
0.2374789579887712,0.24864994704965193,0.24306445251921155,2e-08,1.3844373104863458e-08
0.24864994704965193,0.26034641844233664,0.2544981827459943,2e-08,1.3844373104863458e-08
0.26034641844233664,0.2725930908089736,0.26646975462565514,3.0000000000000004e-08,1.6583123951776998e-08
0.2725930908089736,0.28541584555443905,0.2790044681817063,1e-08,1e-08
0.28541584555443905,0.29884178154259267,0.29212881354851583,2e-08,1.3844373104863458e-08
0.29884178154259267,0.31289927236543963,0.3058705269540162,3.0000000000000004e-08,1.6583123951776998e-08
0.31289927236543963,0.3276180263062294,0.3202586493358345,2e-08,1.3844373104863458e-08
0.3276180263062294,0.34302914912321286,0.33532358771472115,1e-08,1e-08
0.34302914912321286,0.3591652097867426,0.35109717945497776,1e-08,1e-08
0.3591652097867426,0.3760603093086394,0.367612759547691,3.0000000000000004e-08,1.6583123951776998e-08
0.3760603093086394,0.393750152809287,0.3849052310589632,1e-08,1e-08
0.393750152809287,0.41227212497475624,0.4030111388920216,2e-08,1.3844373104863458e-08
0.41227212497475624,0.4316653690634254,0.4219687470190908,1e-08,1e-08
0.4316653690634254,0.4519708696290653,0.4418181193462454,5e-08,2.0412414523193148e-08
0.4519708696290653,0.47323153913521065,0.462601204382138,0.0,0.0
0.47323153913521065,0.49549230864386395,0.4843619238895373,2e-08,1.3844373104863458e-08
0.49549230864386395,0.5188002227701878,0.5071462657070258,4e-08,1.8708286933869706e-08
0.5188002227701878,0.5432045391038576,0.5310023809370227,6e-08,2.179449471770337e-08
0.5432045391038576,0.5687568323071858,0.5559806857055216,6.999999999999999e-08,2.70801280154532e-08
0.5687568323071858,0.5955111031100121,0.5821339677085989,5e-08,2.5000000000000002e-08
0.5955111031100121,0.6235238924317065,0.6095174977708593,7e-08,2.70801280154532e-08
0.6235238924317065,0.6528544008714552,0.6381891466515808,6e-08,2.179449471770337e-08
0.6528544008714552,0.6835646138193648,0.66820950734541,1.4e-07,4.9159604012508755e-08
0.6835646138193648,0.7157194324527797,0.6996420231360723,6e-08,2.179449471770337e-08
0.7157194324527797,0.7493868108946533,0.7325531216737164,1.4e-07,3.840572873934304e-08
0.7493868108946533,0.7846378998238388,0.7670123553592461,1.9000000000000003e-07,3.316624790355399e-08
0.7846378998238388,0.8215471968407938,0.8030925483323164,1.3e-07,3.5707142142714254e-08
0.8215471968407938,0.8601927039064753,0.8408699503736345,9e-08,3.5e-08
0.8601927039064753,0.9006560921871456,0.8804243980468105,1.1000000000000002e-07,3.253203549323855e-08
0.9006560921871456,0.9430228746534638,0.9218394834203048,1.8e-07,4.2130748865881794e-08
0.9430228746534638,0.9873825867986226,0.9652027307260431,2.44564104e-07,5.197651038680341e-08
0.9873825867986226,1.0338289758574506,1.0106057813280365,8e-08,3.452052529534663e-08
1.0338289758574506,1.0824601989263642,1.0581445873919075,1.2e-07,3.968626966596886e-08
1.0824601989263642,1.1333790304028648,1.1079196146646146,2.5000000000000004e-07,4.330127018922194e-08
1.1333790304028648,1.1866930791829704,1.1600360547929176,2.3e-07,5.1639777949432226e-08
1.1866930791829704,1.2425150160755967,1.2146040476292836,2.0000000000000002e-07,3.818813079129866e-08
1.2425150160755967,1.3009628119144887,1.2717389139950428,1.8e-07,4.453463071962463e-08
1.3009628119144887,1.3621599868709182,1.3315613993927036,2.9000000000000003e-07,5.338539126015654e-08
1.3621599868709182,1.4262358714940264,1.3941979291824724,3.6e-07,7.337120234351712e-08
1.4262358714940264,1.493325880030483,1.4597808757622546,2.6000000000000005e-07,4.2031734043061636e-08
1.493325880030483,1.5635717966010745,1.5284488383157786,4.583893359999999e-07,7.30600572943536e-08
1.5635717966010745,1.6371220748390232,1.6003469357200488,3.8e-07,6.29152869605896e-08
1.6371220748390232,1.7141321516232484,1.6756271132311358,3.0000000000000004e-07,5.951190357119041e-08
1.7141321516232484,1.7947647755696305,1.7544484635964395,4.1456410399999983e-07,8.102665194442393e-08
1.7947647755696305,1.8791903509744645,1.8369775632720475,3.8e-07,5.7951128835712334e-08
1.8791903509744645,1.9675872979369864,1.9233888244557256,3.400000000000001e-07,5.2440442408507566e-08
1.9675872979369864,2.0601424294220303,2.0138648636795082,5.1e-07,7.702813338860895e-08
2.0601424294220303,2.15705134605968,2.1085968877408554,4.6e-07,8.067424206853967e-08
2.15705134605968,2.2585188495162605,2.20778509778797,3.691165265982359e-07,5.92839716295171e-08
2.2585188495162605,2.3647593753102636,2.3116391124132623,4.6999999999999995e-07,6.344288770224763e-08
2.3647593753102636,2.4759974459878986,2.4203784106490813,4.6838933600000005e-07,6.96914694338857e-08
2.4759974459878986,2.592468145615978,2.5342327958019384,3.8999999999999976e-07,4.672615256292065e-08
2.592468145615978,2.7144176165949068,2.6534428811054425,5e-07,7.065172798075547e-08
2.7144176165949068,2.842103579841711,2.778260598218309,5.699999999999999e-07,8.134289561274953e-08
2.842103579841711,2.9757958794424315,2.908949729642071,6.1e-07,7.648529270389176e-08
2.9757958794424315,3.1157770529249142,3.0457864661836727,5.999999999999999e-07,6.976149845485454e-08
3.1157770529249142,3.2623429283571834,3.1890599906410486,5.1e-07,4.873397172404485e-08
3.2623429283571834,3.415803249533272,3.339073088945228,7.000000000000001e-07,1.0519822558706332e-07
3.415803249533272,3.5764823305677327,3.496142790050502,6.3e-07,5.5151307025914275e-08
3.5764823305677327,3.74471974128222,3.6606010359249765,7.599999999999999e-07,9.40744386111339e-08
3.74471974128222,3.920871024832596,3.832795383057408,7.445641040000001e-07,1.0211784025652004e-07
3.920871024832596,4.105308449093149,4.013089736962873,7.445641040000001e-07,6.389810481271051e-08
4.105308449093149,4.2984217933858595,4.201865121239504,6.100000000000001e-07,8.548879068821436e-08
4.2984217933858595,4.500619172217357,4.399520482801608,1.7445641039999996e-06,1.1949098701850367e-07
4.500619172217357,4.712327897764348,4.606473534990853,1.9299999999999997e-06,1.526433752247376e-07
4.712327897764348,4.93399538293033,4.8231616403473385,1.8245641040000003e-06,1.2306978894915466e-07
4.93399538293033,5.166090086881981,5.050042734906155,2.1213376208845523e-06,1.688033566616417e-07
5.166090086881981,5.409102505063519,5.28759629597275,2.1059068800000004e-06,1.5524607962855425e-07
5.409102505063519,5.663546205781223,5.536324355422371,2.034478531508091e-06,1.508517602590016e-07
5.663546205781223,5.9299589155488235,5.796752560665023,2.094564104e-06,1.4515368301214245e-07
5.9299589155488235,6.2089036554874255,6.0694312855181245,2.285899349934567e-06,1.6384038832781874e-07
6.2089036554874255,6.5009699311815945,6.35493679333451,2.362802609103933e-06,1.678561528859154e-07
6.5009699311815945,6.806774978506158,6.653872454843876,2.3535862568947826e-06,1.6589685196458178e-07
6.806774978506158,7.1269650680565935,6.966870023281375,2.951074888e-06,1.6405537988448715e-07
7.1269650680565935,7.462216870939709,7.2945909694981514,2.4627446317491472e-06,1.3559958055513307e-07
7.462216870939709,7.8132388888109885,7.637727879875349,2.4329475165787937e-06,1.634062766708408e-07
7.8132388888109885,8.180772951180769,7.997005919995878,3.0046327686668054e-06,1.4680589681452826e-07
8.180772951180769,8.565595783153572,8.37318436716717,3.332081648e-06,2.162173430200729e-07
8.565595783153572,8.96852064691375,8.76705821503366,3.602668103061859e-06,2.058468858438199e-07
8.96852064691375,9.39039906042647,9.17945985367011,3.256778484945413e-06,1.9457650749877307e-07
9.39039906042647,9.832122596986238,9.611260828706353,3.769316062e-06,1.5720979415694886e-07
9.832122596986238,10.294624769416025,10.063373683201132,3.378389336e-06,1.8851848892134576e-07
10.294624769416025,10.778883002898993,10.53675388615751,3.6091282079999993e-06,2.3701935364762005e-07
10.778883002898993,11.285920700611948,11.03240185175547,3.959128208e-06,1.8814720455944983e-07
11.285920700611948,11.816809406526113,11.55136505356903,4.206647077861407e-06,1.9527704828111668e-07
11.816809406526113,12.372671069945815,12.094740238235964,4.0120816480000004e-06,2.1128371613226584e-07
12.372671069945815,12.954680416570856,12.663675743258334,3.6958582350294482e-06,2.085566381170796e-07
12.954680416570856,13.56406743109347,13.259373923832163,4.102081306186152e-06,1.830504026362203e-07
13.56406743109347,14.202119956576416,13.883093693834944,4.222572685745706e-06,2.3497581711337205e-07
14.202119956576416,14.87018641610557,14.536153186340993,4.141343375384734e-06,2.2022750363009571e-07
14.87018641610557,15.569678662468833,15.219932539287202,4.46107587903096e-06,1.7510222659833182e-07
15.569678662468833,16.30207496188367,15.93587681217625,4.227502219063064e-06,2.354970734304542e-07
16.30207496188367,17.068923118078924,16.685499039981295,4.707161793946466e-06,2.2501515633766118e-07
17.068923118078924,17.871843743333184,17.470383430706054,4.371253734198125e-06,2.5582530600019657e-07
17.871843743333184,18.71253368338246,18.292188713357824,2.7445641039999998e-06,1.5856884571689855e-07
18.71253368338246,19.592769603435265,19.152651643408863,1.7545641040000003e-06,1.2073483053917262e-07
19.592769603435265,20.51441174287349,20.05359067315438,6.807135713254695e-06,2.988636925209452e-07
20.51441174287349,21.479407846574095,20.99690979472379,6.424287432804006e-06,2.97411079112526e-07
21.479407846574095,22.48979728115979,21.984602563866943,1.4724629360008576e-05,3.793628357263775e-07
22.48979728115979,23.54771534487784,23.018756313018816,1.5743180693083083e-05,4.406552103960749e-07
23.54771534487784,24.65539778021513,24.101556562546484,1.6173786549832043e-05,3.0423117160090363e-07
24.65539778021513,25.81518549878626,25.235291639500694,1.6804103737478135e-05,4.825453323012828e-07
25.81518549878626,27.029529528479973,26.422357513633116,1.6354124587879018e-05,2.9714528284721026e-07
27.029529528479973,28.30099619331888,27.665262860899425,1.8749790782681863e-05,5.221273977812679e-07
28.30099619331888,29.632272536979364,28.966634365149122,2.203171003353856e-05,4.0299091665694353e-07
29.632272536979364,31.026172001433324,30.329222269206344,2.3302256486291083e-05,4.3023957207442614e-07
31.026172001433324,32.48564037271279,31.755906187073055,2.2813840704785e-05,4.849277800339785e-07
32.48564037271279,34.0137620063627,33.249701189537745,2.4090078473149262e-05,5.090043574996598e-07
34.0137620063627,35.613766345738505,34.8137641760506,2.329848385908861e-05,6.439428830010895e-07
35.613766345738505,37.28903474692383,36.45140054633117,2.445733609990771e-05,4.790037404898166e-07
37.28903474692383,39.043107624691736,38.16607118580778,2.5565435274316085e-05,5.081114661482826e-07
39.043107624691736,40.87969193461129,39.961399779651515,2.559273205081741e-05,5.902066166333185e-07
40.87969193461129,42.80266900711179,41.84118047086154,2.571087740181017e-05,5.100469842090799e-07
42.80266900711179,44.81610275006072,43.809385878586255,2.5173510092261325e-05,5.58424836515442e-07
44.81610275006072,46.924248237190184,45.87017549362545,2.350127709031004e-05,4.296053987426262e-07
46.924248237190184,49.13156070052205,48.02790446885612,2.8538553795788307e-05,5.797539862248742e-07
49.13156070052205,51.442704945796535,50.2871328231593,3.1245587915904074e-05,5.683823260379862e-07
51.442704945796535,53.862565210800646,52.65263507829859,3.4075228020507323e-05,6.931729273754456e-07
53.862565210800646,56.39625548743256,55.129410349116604,3.45131652259001e-05,6.465293419756398e-07
56.39625548743256,59.04913032931448,57.72269290837352,3.408330920876421e-05,5.39016658911305e-07
59.04913032931448,61.82679616779471,60.437963248554595,3.453101714608924e-05,6.682818311973937e-07
61.82679616779471,64.73512316025354,63.280959664024124,3.494252492888721e-05,6.75363661710336e-07
