energy low [eV],energy high [eV],energy mid [eV],mean,std. dev.
0.001,0.0010470399110535467,0.0010235199555267732,0.0,0.0
0.0010470399110535467,0.0010962925753390188,0.0010716662431962828,0.0,0.0
0.0010962925753390188,0.0011478620805716298,0.0011220773279553243,0.0,0.0
0.0011478620805716298,0.001201857410743458,0.0011748597456575438,0.0,0.0
0.001201857410743458,0.0012583926764438763,0.0012301250435936672,0.0,0.0
0.0012583926764438763,0.0013175873560142307,0.0012879900162290534,0.0,0.0
0.0013175873560142307,0.0013795665480464177,0.0013485769520303241,0.0,0.0
0.0013795665480464177,0.0014444612357589696,0.0014120138919026938,0.0,0.0
0.0014444612357589696,0.0015124085638093675,0.0014784348997841684,0.0,0.0
0.0015124085638093675,0.0015835521281275823,0.0015479803459684748,0.0,0.0
0.0015835521281275823,0.0016580422793833582,0.0016207972037554702,0.0,0.0
0.0016580422793833582,0.0017360364407285694,0.0016970393600559638,0.0,0.0
0.0017360364407285694,0.0018176994404861568,0.001776867940607363,0.0,0.0
0.0018176994404861568,0.001903203860488707,0.0018604516504874319,0.0,0.0
0.001903203860488707,0.0019927304008028625,0.0019479671306457847,0.0,0.0
0.0019927304008028625,0.0020864682616103273,0.0020395993312065947,0.0,0.0
0.0020864682616103273,0.0021846155430525253,0.002135541902331426,0.0,0.0
0.0021846155430525253,0.0022873796638839114,0.002235997603468218,0.0,0.0
0.0022873796638839114,0.0023949777998187017,0.0023411787318513063,0.0,0.0
0.0023949777998187017,0.0025076373424973925,0.002451307571158047,0.0,0.0
0.0025076373424973925,0.002625596380043022,0.002566616861270207,0.0,0.0
0.002625596380043022,0.0027491042002227594,0.0026873502901328906,0.0,0.0
0.0027491042002227594,0.0028784218172781696,0.0028137630087504643,0.0,0.0
0.0028784218172781696,0.0030138225235375226,0.002946122170407846,0.0,0.0
0.0030138225235375226,0.003155592466975903,0.0030847074952567127,0.0,0.0
0.003155592466975903,0.003304031255943691,0.0032298118614597967,0.0,0.0
0.003304031255943691,0.0034594525923414203,0.0033817419241425556,0.0,0.0
0.0034594525923414203,0.0036221849345791216,0.003540818763460271,0.0,0.0
0.0036221849345791216,0.00379257219172122,0.003707378563150171,0.0,0.0
0.00379257219172122,0.003970974450283936,0.0038817733210025785,0.0,0.0
0.003970974450283936,0.004157768735221199,0.004064371592752568,0.0,0.0
0.004157768735221199,0.004353349806707221,0.00425555927096421,0.0,0.0
0.004353349806707221,0.004558130994399704,0.0044557404005534625,0.0,0.0
0.004558130994399704,0.0047725450709466795,0.004665338032673192,0.0,0.0
0.0047725450709466795,0.004997045166583053,0.004884795118764867,0.0,0.0
0.004997045166583053,0.005232105726749675,0.005114575446666364,0.0,0.0
0.005232105726749675,0.005478223514758732,0.005355164620754204,0.0,0.0
0.005478223514758732,0.00573591866162443,0.005607071088191581,0.0,0.0
0.00573591866162443,0.0060057357652776215,0.005870827213451026,0.0,0.0
0.0060057357652776215,0.006288245041487384,0.0061469904033825025,0.0,0.0
0.006288245041487384,0.006584043528921856,0.00643614428520462,0.0,0.0
0.006584043528921856,0.00689375635089502,0.006738899939908438,0.0,0.0
0.00689375635089502,0.0072180380364659435,0.007055897193680482,0.0,0.0
0.0072180380364659435,0.007557573903682418,0.007387805970074181,0.0,0.0
0.007557573903682418,0.007913081507892243,0.00773532770578733,0.0,0.0
0.007913081507892243,0.00828531215818296,0.0080991968330376,0.0,0.0
0.00828531215818296,0.008675052505154754,0.008480182331668857,0.0,0.0
0.008675052505154754,0.00908312620338208,0.008879089354268416,0.0,0.0
0.00908312620338208,0.009510395652077312,0.009296760927729696,0.0,0.0
0.009510395652077312,0.009957763817635065,0.00973407973485619,0.0,0.0
0.009957763817635065,0.010426176141908838,0.010191969979771951,0.0,0.0
0.010426176141908838,0.01091662254025284,0.010671399341080839,0.0,0.0
0.01091662254025284,0.011430139493551475,0.011173381016902156,0.0,0.0
0.011430139493551475,0.011967812238657767,0.01169897586610462,0.0,0.0
0.011967812238657767,0.012530777061869775,0.01224929465026377,0.0,0.0
0.012530777061869775,0.01312022370029195,0.012825500381080861,0.0,0.0
0.01312022370029195,0.013737397856156318,0.013428810778224134,0.0,0.0
0.013737397856156318,0.014383603829417092,0.014060500842786705,0.0,0.0
0.014383603829417092,0.015060207274182318,0.014721905551799705,0.0,0.0
0.015060207274182318,0.01576863808480783,0.015414422679495074,0.0,0.0
0.01576863808480783,0.016510393417752758,0.016139515751280295,0.0,0.0
0.016510393417752758,0.017287040855582907,0.01689871713666783,0.0,0.0
0.017287040855582907,0.018100221719808556,0.01769363128769573,0.0,0.0
0.018100221719808556,0.01895165453955782,0.018525938129683187,0.0,0.0
0.01895165453955782,0.019843138683416164,0.01939739661148699,0.0,0.0
0.019843138683416164,0.020776558162107252,0.020309848422761706,0.0,0.0
0.020776558162107252,0.021753885610051614,0.021265221886079433,0.0,0.0
0.021753885610051614,0.02277718645421747,0.02226553603213454,0.0,0.0
0.02277718645421747,0.023848623279073906,0.023312904866645688,0.0,0.0
0.023848623279073906,0.02497046039687107,0.02440954183797249,0.0,0.0
0.02497046039687107,0.026145068632905992,0.02555776451488853,0.0,0.0
0.026145068632905992,0.02737493033588676,0.026759999484396377,0.0,0.0
0.02737493033588676,0.02866264462398391,0.028018787479935338,0.0,0.0
0.02866264462398391,0.03001093287765553,0.02933678875081972,0.0,0.0
0.03001093287765553,0.031422644490854405,0.030716788684254967,0.0,0.0
0.031422644490854405,0.03290076289277141,0.03216170369181291,0.0,0.0
0.03290076289277141,0.034448411852841206,0.033674587372806306,0.0,0.0
0.034448411852841206,0.0360688620823348,0.035258636967588006,0.0,0.0
0.0360688620823348,0.03776553814649047,0.03691720011441263,0.0,0.0
0.03776553814649047,0.039542025701790676,0.03865378192414057,0.0,0.0
0.039542025701790676,0.041402079073679966,0.040472052387735324,0.0,0.0
0.041402079073679966,0.04334962919073777,0.04237585413220887,0.0,0.0
0.04334962919073777,0.04538879189207431,0.04436921054140604,0.0,0.0
0.04538879189207431,0.04752387662550542,0.046456334258789866,0.0,0.0
0.04752387662550542,0.04975939555488892,0.04864163609019717,0.0,0.0
0.04975939555488892,0.052100073095869136,0.05092973432537903,0.0,0.0
0.052100073095869136,0.05455085590018209,0.05332546449802561,0.0,0.0
0.05455085590018209,0.057116923309621495,0.05583388960490179,0.0,0.0
0.057116923309621495,0.059803698301758336,0.05846031080568992,0.0,0.0
0.059803698301758336,0.06261685895054618,0.06121027862615226,0.0,0.0
0.06261685895054618,0.06556235042603231,0.06408960468828925,0.0,0.0
0.06556235042603231,0.06864639755853433,0.06710437399228332,0.0,0.0
0.06864639755853433,0.07187551799383418,0.07026095777618425,0.0,0.0
0.07187551799383418,0.07525653596719173,0.07356602698051296,0.0,0.0
0.07525653596719173,0.07879659672528647,0.0770265663462391,0.0,0.0
0.07879659672528647,0.08250318162656611,0.08064988917592629,0.0,0.0
0.08250318162656611,0.08638412395191439,0.08444365278924025,0.0,0.0
0.08638412395191439,0.090447625459051,0.08841587470548269,0.0,0.0
0.090447625459051,0.09470227371564925,0.09257494958735013,0.0,0.0
0.09470227371564925,0.099157060247802,0.09692966698172563,0.0,0.0
0.099157060247802,0.10382139954218973,0.10148922989499587,0.0,0.0
0.10382139954218973,0.10870514894210906,0.1062632742421494,0.0,0.0
0.10870514894210906,0.1138186294794084,0.11126188921075873,0.0,0.0
0.1138186294794084,0.11917264768635635,0.11649563858288238,0.0,0.0
0.11917264768635635,0.1247785184335382,0.12197558305994727,0.0,0.0
0.1247785184335382,0.13064808884204515,0.12771330363779168,0.0,0.0
0.13064808884204515,0.1367937633204908,0.13372092608126798,0.0,0.0
0.1367937633204908,0.1432285297797666,0.1400111465501287,0.0,0.0
0.1432285297797666,0.14996598708093709,0.14659725843035185,0.0,0.0
0.14996598708093709,0.15702037377428169,0.1534931804276094,0.0,0.0
0.15702037377428169,0.16440659819021855,0.1607134859822501,0.0,0.0
0.16440659819021855,0.1721402699457026,0.16827343406796058,0.0,0.0
0.1721402699457026,0.18023773293268194,0.17618900143919228,0.0,0.0
0.18023773293268194,0.1887160998583282,0.18447691639550506,0.0,0.0
0.1887160998583282,0.19759328841003618,0.19315469413418218,0.0,0.0
0.19759328841003618,0.20688805912162206,0.2022406737658291,0.0,0.0
0.20688805912162206,0.21662005502074405,0.21175405707118305,0.0,0.0
0.21662005502074405,0.226809843141334,0.22171494908103903,0.0,0.0
0.226809843141334,0.2374789579887712,0.2321444005650526,0.0,0.0
0.2374789579887712,0.24864994704965193,0.24306445251921155,0.0,0.0
0.24864994704965193,0.26034641844233664,0.2544981827459943,0.0,0.0
0.26034641844233664,0.2725930908089736,0.26646975462565514,0.0,0.0
0.2725930908089736,0.28541584555443905,0.2790044681817063,0.0,0.0
0.28541584555443905,0.29884178154259267,0.29212881354851583,0.0,0.0
0.29884178154259267,0.31289927236543963,0.3058705269540162,0.0,0.0
0.31289927236543963,0.3276180263062294,0.3202586493358345,0.0,0.0
0.3276180263062294,0.34302914912321286,0.33532358771472115,0.0,0.0
0.34302914912321286,0.3591652097867426,0.35109717945497776,0.0,0.0
0.3591652097867426,0.3760603093086394,0.367612759547691,0.0,0.0
0.3760603093086394,0.393750152809287,0.3849052310589632,0.0,0.0
0.393750152809287,0.41227212497475624,0.4030111388920216,0.0,0.0
0.41227212497475624,0.4316653690634254,0.4219687470190908,0.0,0.0
0.4316653690634254,0.4519708696290653,0.4418181193462454,0.0,0.0
0.4519708696290653,0.47323153913521065,0.462601204382138,0.0,0.0
0.47323153913521065,0.49549230864386395,0.4843619238895373,0.0,0.0
0.49549230864386395,0.5188002227701878,0.5071462657070258,0.0,0.0
0.5188002227701878,0.5432045391038576,0.5310023809370227,0.0,0.0
0.5432045391038576,0.5687568323071858,0.5559806857055216,0.0,0.0
0.5687568323071858,0.5955111031100121,0.5821339677085989,0.0,0.0
0.5955111031100121,0.6235238924317065,0.6095174977708593,0.0,0.0
0.6235238924317065,0.6528544008714552,0.6381891466515808,1e-08,1e-08
0.6528544008714552,0.6835646138193648,0.66820950734541,0.0,0.0
0.6835646138193648,0.7157194324527797,0.6996420231360723,0.0,0.0
0.7157194324527797,0.7493868108946533,0.7325531216737164,1e-08,1e-08
0.7493868108946533,0.7846378998238388,0.7670123553592461,0.0,0.0
0.7846378998238388,0.8215471968407938,0.8030925483323164,0.0,0.0
0.8215471968407938,0.8601927039064753,0.8408699503736345,0.0,0.0
0.8601927039064753,0.9006560921871456,0.8804243980468105,0.0,0.0
0.9006560921871456,0.9430228746534638,0.9218394834203048,1e-08,1e-08
0.9430228746534638,0.9873825867986226,0.9652027307260431,0.0,0.0
0.9873825867986226,1.0338289758574506,1.0106057813280365,0.0,0.0
1.0338289758574506,1.0824601989263642,1.0581445873919075,0.0,0.0
1.0824601989263642,1.1333790304028648,1.1079196146646146,2e-08,1.3844373104863458e-08
1.1333790304028648,1.1866930791829704,1.1600360547929176,0.0,0.0
1.1866930791829704,1.2425150160755967,1.2146040476292836,2e-08,1.3844373104863458e-08
1.2425150160755967,1.3009628119144887,1.2717389139950428,4e-08,1.8708286933869706e-08
1.3009628119144887,1.3621599868709182,1.3315613993927036,3.0000000000000004e-08,1.6583123951776998e-08
1.3621599868709182,1.4262358714940264,1.3941979291824724,3.0000000000000004e-08,1.6583123951776998e-08
1.4262358714940264,1.493325880030483,1.4597808757622546,1e-08,1e-08
1.493325880030483,1.5635717966010745,1.5284488383157786,0.0,0.0
1.5635717966010745,1.6371220748390232,1.6003469357200488,1e-08,1e-08
1.6371220748390232,1.7141321516232484,1.6756271132311358,4e-08,1.8708286933869706e-08
1.7141321516232484,1.7947647755696305,1.7544484635964395,1e-08,1e-08
1.7947647755696305,1.8791903509744645,1.8369775632720475,4e-08,2.362907813126304e-08
1.8791903509744645,1.9675872979369864,1.9233888244557256,4e-08,1.8708286933869706e-08
1.9675872979369864,2.0601424294220303,2.0138648636795082,3.0000000000000004e-08,1.6583123951776998e-08
2.0601424294220303,2.15705134605968,2.1085968877408554,6e-08,2.6140645235596872e-08
2.15705134605968,2.2585188495162605,2.20778509778797,5.4564104e-08,2.0456798674022353e-08
2.2585188495162605,2.3647593753102636,2.3116391124132623,5e-08,2.0412414523193148e-08
2.3647593753102636,2.4759974459878986,2.4203784106490813,8e-08,3.452052529534663e-08
2.4759974459878986,2.592468145615978,2.5342327958019384,6.999999999999999e-08,2.2912878474779198e-08
2.592468145615978,2.7144176165949068,2.6534428811054425,6e-08,2.6925824035672524e-08
2.7144176165949068,2.842103579841711,2.778260598218309,7e-08,2.70801280154532e-08
2.842103579841711,2.9757958794424315,2.908949729642071,1.4e-07,4.349329450233296e-08
2.9757958794424315,3.1157770529249142,3.0457864661836727,1.0000000000000001e-07,2.4999999999999996e-08
3.1157770529249142,3.2623429283571834,3.1890599906410486,1.1e-07,3.162277660168379e-08
3.2623429283571834,3.415803249533272,3.339073088945228,1.4e-07,3.559026084010436e-08
3.415803249533272,3.5764823305677327,3.496142790050502,1e-07,3.34165627596057e-08
3.5764823305677327,3.74471974128222,3.6606010359249765,1.48389336e-07,3.520187549720747e-08
3.74471974128222,3.920871024832596,3.832795383057408,2.0829055716022155e-07,5.102378166528015e-08
3.920871024832596,4.105308449093149,4.013089736962873,1.4e-07,3.7080992435478316e-08
4.105308449093149,4.2984217933858595,4.201865121239504,1.1e-07,3.1754264805429414e-08
4.2984217933858595,4.500619172217357,4.399520482801608,3.0000000000000004e-07,6.639528095680694e-08
4.500619172217357,4.712327897764348,4.606473534990853,4.1e-07,5.2993710318615504e-08
4.712327897764348,4.93399538293033,4.8231616403473385,3.7999999999999996e-07,5.597618541248892e-08
4.93399538293033,5.166090086881981,5.050042734906155,4.3999999999999997e-07,6.291528696058958e-08
5.166090086881981,5.409102505063519,5.28759629597275,4.94564104e-07,5.965192692045094e-08
5.409102505063519,5.663546205781223,5.536324355422371,5.6e-07,6.204836822995433e-08
5.663546205781223,5.9299589155488235,5.796752560665023,5.936954123328309e-07,8.926875094547705e-08
5.9299589155488235,6.2089036554874255,6.0694312855181245,7.438943101124887e-07,8.508446521277326e-08
6.2089036554874255,6.5009699311815945,6.35493679333451,8.74564104e-07,7.1991644274338e-08
6.5009699311815945,6.806774978506158,6.653872454843876,7.43692312e-07,8.362103857519122e-08
6.806774978506158,7.1269650680565935,6.966870023281375,9.54564104e-07,9.007865636203438e-08
7.1269650680565935,7.462216870939709,7.2945909694981514,1.0845641040000002e-06,1.0241933348733275e-07
7.462216870939709,7.8132388888109885,7.637727879875349,1.1184317769272491e-06,1.0577036263641487e-07
7.8132388888109885,8.180772951180769,7.997005919995878,1.3091026216289207e-06,1.0790676367754438e-07
8.180772951180769,8.565595783153572,8.37318436716717,1.4245641039999997e-06,1.3900400382239422e-07
8.565595783153572,8.96852064691375,8.76705821503366,1.3348129817602543e-06,1.1388042816506291e-07
8.96852064691375,9.39039906042647,9.17945985367011,1.7057133607441938e-06,1.0855885269091594e-07
9.39039906042647,9.832122596986238,9.611260828706353,1.6483866438550388e-06,1.472659010552118e-07
9.832122596986238,10.294624769416025,10.063373683201132,1.6888152906313246e-06,1.0884635597993526e-07
10.294624769416025,10.778883002898993,10.53675388615751,1.7783893360000003e-06,1.4479996553356244e-07
10.778883002898993,11.285920700611948,11.03240185175547,1.973256503680762e-06,1.4507353456770747e-07
11.285920700611948,11.816809406526113,11.55136505356903,2.174271126085476e-06,1.5625278310269393e-07
11.816809406526113,12.372671069945815,12.094740238235964,2.207449279130957e-06,1.703864785410939e-07
12.372671069945815,12.954680416570856,12.663675743258334,2.2420816480000004e-06,1.5772680482535547e-07
12.954680416570856,13.56406743109347,13.259373923832163,2.7841145706765636e-06,2.0605035483859868e-07
13.56406743109347,14.202119956576416,13.883093693834944,2.7697199010971797e-06,1.1393342057989519e-07
14.202119956576416,14.87018641610557,14.536153186340993,2.8760183337023957e-06,1.5140177015430707e-07
14.87018641610557,15.569678662468833,15.219932539287202,2.778106856560859e-06,1.46215706555652e-07
15.569678662468833,16.30207496188367,15.93587681217625,2.8175175439999994e-06,1.9505044457368084e-07
16.30207496188367,17.068923118078924,16.685499039981295,2.9075854912242667e-06,1.7956304131254517e-07
17.068923118078924,17.871843743333184,17.470383430706054,2.8700803037639776e-06,1.599370140189097e-07
17.871843743333184,18.71253368338246,18.292188713357824,2.183056668735656e-06,1.8663310697499076e-07
18.71253368338246,19.592769603435265,19.152651643408863,1.354564104e-06,1.0579076386271246e-07
19.592769603435265,20.51441174287349,20.05359067315438,4.0742211134680845e-06,1.5121476710336004e-07
20.51441174287349,21.479407846574095,20.99690979472379,3.964816357574576e-06,2.2206300555239144e-07
21.479407846574095,22.48979728115979,21.984602563866943,6.690728416088093e-06,2.537411574332285e-07
22.48979728115979,23.54771534487784,23.018756313018816,7.385519694268883e-06,2.842924973701426e-07
23.54771534487784,24.65539778021513,24.101556562546484,8.341437639214434e-06,3.211776133992896e-07
24.65539778021513,25.81518549878626,25.235291639500694,8.768014220414102e-06,2.9745125356066064e-07
25.81518549878626,27.029529528479973,26.422357513633116,9.713419355417279e-06,3.1873650009826134e-07
27.029529528479973,28.30099619331888,27.665262860899425,9.784512061996414e-06,3.556524814011064e-07
28.30099619331888,29.632272536979364,28.966634365149122,1.1278205616206398e-05,4.1167285641677834e-07
29.632272536979364,31.026172001433324,30.329222269206344,1.2549583156158889e-05,3.355567783115108e-07
31.026172001433324,32.48564037271279,31.755906187073055,1.2429134500286206e-05,3.0851116523178087e-07
32.48564037271279,34.0137620063627,33.249701189537745,1.2699827490528149e-05,3.599518742881442e-07
34.0137620063627,35.613766345738505,34.8137641760506,1.4266463360306327e-05,4.24677871294177e-07
35.613766345738505,37.28903474692383,36.45140054633117,1.4497089169974271e-05,3.9468533223306885e-07
37.28903474692383,39.043107624691736,38.16607118580778,1.5112461875911499e-05,3.751758757139007e-07
39.043107624691736,40.87969193461129,39.961399779651515,1.5788760483424797e-05,4.1822384758132017e-07
40.87969193461129,42.80266900711179,41.84118047086154,1.634272552190704e-05,3.8443147904268874e-07
42.80266900711179,44.81610275006072,43.809385878586255,1.7157007133336434e-05,4.1276925946343636e-07
44.81610275006072,46.924248237190184,45.87017549362545,1.6563288818181177e-05,3.9083515607679436e-07
46.924248237190184,49.13156070052205,48.02790446885612,1.952527481343322e-05,4.485247942594037e-07
49.13156070052205,51.442704945796535,50.2871328231593,2.141268399635044e-05,5.050694051707946e-07
51.442704945796535,53.862565210800646,52.65263507829859,2.1615700157129345e-05,3.9858132244604966e-07
53.862565210800646,56.39625548743256,55.129410349116604,2.298487847452077e-05,4.841309051488199e-07
56.39625548743256,59.04913032931448,57.72269290837352,2.4070147865517063e-05,4.701884328167476e-07
59.04913032931448,61.82679616779471,60.437963248554595,2.5174722902243068e-05,4.493310484640543e-07
61.82679616779471,64.73512316025354,63.280959664024124,2.5703503262271467e-05,5.48490781910936e-07
64.73512316025354,67.78025759575225,66.25769037800289,2.702025430267891e-05,4.873552311861674e-07
67.78025759575225,70.9686348842429,69.37444623999758,2.7457714019290187e-05,4.1151991320850216e-07
70.9686348842429,74.30699315678932,72.63781402051612,3.0198260213792992e-05,5.1942596107132e-07
74.30699315678932,77.80238750554118,76.05469033116525,3.0539561674635974e-05,5.575628009919479e-07
77.80238750554118,81.46220489355541,79.63229619954829,3.13929469631458e-05,6.250095933893614e-07
81.46220489355541,85.29417976597404,83.37819232976472,3.246019796134315e-05,5.569774470990258e-07
85.29417976597404,89.30641039555067,87.30029508076235,3.3734804172567254e-05,5.920464475993451e-07
89.30641039555067,93.5073759970689,91.4068931963098,3.459930962329017e-05,6.661575312282324e-07
93.5073759970689,97.90595464682157,95.70666532194524,3.5697177870638744e-05,7.50108730163452e-07
97.90595464682157,102.51144204502063,100.2086983459211,3.539748270512128e-05,5.901025399612481e-07
