energy low [eV],energy high [eV],energy mid [eV],mean,std. dev.
0.001,0.0010470399110535467,0.0010235199555267732,0.0,0.0
0.0010470399110535467,0.0010962925753390188,0.0010716662431962828,0.0,0.0
0.0010962925753390188,0.0011478620805716298,0.0011220773279553243,0.0,0.0
0.0011478620805716298,0.001201857410743458,0.0011748597456575438,0.0,0.0
0.001201857410743458,0.0012583926764438763,0.0012301250435936672,3.0000000000000004e-08,1.6583123951776998e-08
0.0012583926764438763,0.0013175873560142307,0.0012879900162290534,1e-08,1e-08
0.0013175873560142307,0.0013795665480464177,0.0013485769520303241,1e-08,1e-08
0.0013795665480464177,0.0014444612357589696,0.0014120138919026938,1e-08,1e-08
0.0014444612357589696,0.0015124085638093675,0.0014784348997841684,1e-08,1e-08
0.0015124085638093675,0.0015835521281275823,0.0015479803459684748,1e-08,1e-08
0.0015835521281275823,0.0016580422793833582,0.0016207972037554702,1e-08,1e-08
0.0016580422793833582,0.0017360364407285694,0.0016970393600559638,0.0,0.0
0.0017360364407285694,0.0018176994404861568,0.001776867940607363,0.0,0.0
0.0018176994404861568,0.001903203860488707,0.0018604516504874319,2e-08,1.3844373104863458e-08
0.001903203860488707,0.0019927304008028625,0.0019479671306457847,1e-08,1e-08
0.0019927304008028625,0.0020864682616103273,0.0020395993312065947,2e-08,1.3844373104863458e-08
0.0020864682616103273,0.0021846155430525253,0.002135541902331426,2e-08,1.3844373104863458e-08
0.0021846155430525253,0.0022873796638839114,0.002235997603468218,4e-08,1.8708286933869706e-08
0.0022873796638839114,0.0023949777998187017,0.0023411787318513063,2e-08,1.3844373104863458e-08
0.0023949777998187017,0.0025076373424973925,0.002451307571158047,6e-08,2.179449471770337e-08
0.0025076373424973925,0.002625596380043022,0.002566616861270207,1.0999999999999999e-07,3.559026084010437e-08
0.002625596380043022,0.0027491042002227594,0.0026873502901328906,3.0000000000000004e-08,1.6583123951776998e-08
0.0027491042002227594,0.0028784218172781696,0.0028137630087504643,5e-08,2.0412414523193148e-08
0.0028784218172781696,0.0030138225235375226,0.002946122170407846,1e-08,1e-08
0.0030138225235375226,0.003155592466975903,0.0030847074952567127,1.3000000000000003e-07,3.2659863237109035e-08
0.003155592466975903,0.003304031255943691,0.0032298118614597967,1.3e-07,3.5707142142714254e-08
0.003304031255943691,0.0034594525923414203,0.0033817419241425556,6.999999999999999e-08,2.70801280154532e-08
0.0034594525923414203,0.0036221849345791216,0.003540818763460271,1.3e-07,3.8514066694304474e-08
0.0036221849345791216,0.00379257219172122,0.003707378563150171,1.7e-07,4.5000000000000006e-08
0.00379257219172122,0.003970974450283936,0.0038817733210025785,1.7000000000000004e-07,3.135814620371129e-08
0.003970974450283936,0.004157768735221199,0.004064371592752568,1.7000000000000004e-07,3.7416573867739405e-08
0.004157768735221199,0.004353349806707221,0.00425555927096421,1.9000000000000003e-07,3.316624790355399e-08
0.004353349806707221,0.004558130994399704,0.0044557404005534625,2.1000000000000005e-07,3.999999999999998e-08
0.004558130994399704,0.0047725450709466795,0.004665338032673192,3.3e-07,4.941322360124531e-08
0.0047725450709466795,0.004997045166583053,0.004884795118764867,3.999999999999999e-07,4.7871355387816936e-08
0.004997045166583053,0.005232105726749675,0.005114575446666364,3.8e-07,5.972157622389636e-08
0.005232105726749675,0.005478223514758732,0.005355164620754204,4.2e-07,5.5377492419453844e-08
0.005478223514758732,0.00573591866162443,0.005607071088191581,4.800000000000001e-07,6.601767440112784e-08
0.00573591866162443,0.0060057357652776215,0.005870827213451026,5.099999999999999e-07,6.531972647421811e-08
0.0060057357652776215,0.006288245041487384,0.0061469904033825025,6.3e-07,8.431093246627824e-08
0.006288245041487384,0.006584043528921856,0.00643614428520462,7.9e-07,9.092121131323905e-08
0.006584043528921856,0.00689375635089502,0.006738899939908438,9.799999999999997e-07,9.119576013536318e-08
0.00689375635089502,0.0072180380364659435,0.007055897193680482,9.7e-07,1.0735455276791945e-07
0.0072180380364659435,0.007557573903682418,0.007387805970074181,1.2099999999999996e-06,1.1518101695447351e-07
0.007557573903682418,0.007913081507892243,0.00773532770578733,1.4199999999999995e-06,1.247664484814196e-07
0.007913081507892243,0.00828531215818296,0.0080991968330376,1.6099999999999996e-06,1.1644025649805738e-07
0.00828531215818296,0.008675052505154754,0.008480182331668857,1.7599999999999995e-06,1.25399362039845e-07
0.008675052505154754,0.00908312620338208,0.008879089354268416,2.16e-06,1.4568802284333446e-07
0.00908312620338208,0.009510395652077312,0.009296760927729696,2.7399999999999988e-06,1.3805192259919347e-07
0.009510395652077312,0.009957763817635065,0.00973407973485619,2.7799999999999996e-06,1.7399712641305342e-07
0.009957763817635065,0.010426176141908838,0.010191969979771951,2.7500000000000004e-06,1.1902380714238065e-07
0.010426176141908838,0.01091662254025284,0.010671399341080839,3.6099999999999997e-06,2.051828452868322e-07
0.01091662254025284,0.011430139493551475,0.011173381016902156,4.6e-06,2.005201569252671e-07
0.011430139493551475,0.011967812238657767,0.01169897586610462,5.139999999999999e-06,2.0211382931407846e-07
0.011967812238657767,0.012530777061869775,0.01224929465026377,5.48e-06,1.9198524248840869e-07
0.012530777061869775,0.01312022370029195,0.012825500381080861,6.019999999999999e-06,1.957464346205765e-07
0.01312022370029195,0.013737397856156318,0.013428810778224134,6.8799999999999985e-06,2.814101395946274e-07
0.013737397856156318,0.014383603829417092,0.014060500842786705,8e-06,3.112474899497176e-07
0.014383603829417092,0.015060207274182318,0.014721905551799705,9.01e-06,3.5837596645608514e-07
0.015060207274182318,0.01576863808480783,0.015414422679495074,1.001e-05,3.4414144378922433e-07
0.01576863808480783,0.016510393417752758,0.016139515751280295,1.2279999999999998e-05,3.871154005375325e-07
0.016510393417752758,0.017287040855582907,0.01689871713666783,1.3249999999999995e-05,4.046603514059731e-07
0.017287040855582907,0.018100221719808556,0.01769363128769573,1.493e-05,2.667395733669846e-07
0.018100221719808556,0.01895165453955782,0.018525938129683187,1.693e-05,5.193184636296596e-07
0.01895165453955782,0.019843138683416164,0.01939739661148699,1.8669999999999996e-05,4.3198186690339126e-07
0.019843138683416164,0.020776558162107252,0.020309848422761706,2.1150000000000006e-05,4.970747764002138e-07
0.020776558162107252,0.021753885610051614,0.021265221886079433,2.4690000000000002e-05,5.783021125098204e-07
0.021753885610051614,0.02277718645421747,0.02226553603213454,2.669e-05,5.3972987070694e-07
0.02277718645421747,0.023848623279073906,0.023312904866645688,3.0839999999999996e-05,4.881683452799213e-07
0.023848623279073906,0.02497046039687107,0.02440954183797249,3.354e-05,6.673454877348014e-07
0.02497046039687107,0.026145068632905992,0.02555776451488853,3.815e-05,5.722761571129727e-07
0.026145068632905992,0.02737493033588676,0.026759999484396377,4.142e-05,7.357988855658769e-07
0.02737493033588676,0.02866264462398391,0.028018787479935338,4.7789999999999995e-05,7.445188602939094e-07
0.02866264462398391,0.03001093287765553,0.02933678875081972,5.246000000000001e-05,6.628033896513116e-07
0.03001093287765553,0.031422644490854405,0.030716788684254967,6.050000000000001e-05,6.977642868476075e-07
0.031422644490854405,0.03290076289277141,0.03216170369181291,6.466999999999999e-05,9.439191349545728e-07
0.03290076289277141,0.034448411852841206,0.033674587372806306,7.221e-05,7.316761578731728e-07
0.034448411852841206,0.0360688620823348,0.035258636967588006,8.107e-05,9.692694843712126e-07
0.0360688620823348,0.03776553814649047,0.03691720011441263,8.906e-05,9.282914413049015e-07
0.03776553814649047,0.039542025701790676,0.03865378192414057,0.00010005999999999999,1.2576664899726716e-06
0.039542025701790676,0.041402079073679966,0.040472052387735324,0.00011042000000000002,9.563080047765658e-07
0.041402079073679966,0.04334962919073777,0.04237585413220887,0.00012194000000000001,1.2570037125374972e-06
0.04334962919073777,0.04538879189207431,0.04436921054140604,0.00013505,1.0392304845413398e-06
0.04538879189207431,0.04752387662550542,0.046456334258789866,0.00014727999999999999,1.2312189082368797e-06
0.04752387662550542,0.04975939555488892,0.04864163609019717,0.00016319999999999998,9.035808394014609e-07
0.04975939555488892,0.052100073095869136,0.05092973432537903,0.00017611000000000002,1.1684284316977587e-06
0.052100073095869136,0.05455085590018209,0.05332546449802561,0.00019418000000000001,1.5203152085449162e-06
0.05455085590018209,0.057116923309621495,0.05583388960490179,0.0002105599999999999,1.9166637681141166e-06
0.057116923309621495,0.059803698301758336,0.05846031080568992,0.00022834999999999994,1.4451787663357755e-06
0.059803698301758336,0.06261685895054618,0.06121027862615226,0.00024913999999999996,1.5507444448823715e-06
0.06261685895054618,0.06556235042603231,0.06408960468828925,0.00027138999999999993,1.7700094161711238e-06
0.06556235042603231,0.06864639755853433,0.06710437399228332,0.00029410000000000005,1.5604486534322935e-06
0.06864639755853433,0.07187551799383418,0.07026095777618425,0.0003163,1.6761811755696978e-06
0.07187551799383418,0.07525653596719173,0.07356602698051296,0.00034071000000000004,1.3220627821696917e-06
0.07525653596719173,0.07879659672528647,0.0770265663462391,0.00036775999999999996,2.0323160023319025e-06
0.07879659672528647,0.08250318162656611,0.08064988917592629,0.00039249,2.2502999800020157e-06
0.08250318162656611,0.08638412395191439,0.08444365278924025,0.00041755,2.071181224969422e-06
0.08638412395191439,0.090447625459051,0.08841587470548269,0.00044969000000000004,2.3446872570413386e-06
0.090447625459051,0.09470227371564925,0.09257494958735013,0.00047845999999999994,2.50310973257994e-06
0.09470227371564925,0.099157060247802,0.09692966698172563,0.0005080900000000001,3.1341492731937826e-06
0.099157060247802,0.10382139954218973,0.10148922989499587,0.0005346,2.3890810646212958e-06
0.10382139954218973,0.10870514894210906,0.1062632742421494,0.00055968,2.1191350436746515e-06
0.10870514894210906,0.1138186294794084,0.11126188921075873,0.0005886699999999999,2.0098051315168166e-06
0.1138186294794084,0.11917264768635635,0.11649563858288238,0.0006187999999999999,2.665129765447256e-06
0.11917264768635635,0.1247785184335382,0.12197558305994727,0.0006475399999999998,2.4180174385933664e-06
0.1247785184335382,0.13064808884204515,0.12771330363779168,0.0006710799999999999,2.387716831341455e-06
0.13064808884204515,0.1367937633204908,0.13372092608126798,0.00069074,2.146968793439787e-06
0.1367937633204908,0.1432285297797666,0.1400111465501287,0.0007184100000000002,1.8549977538150084e-06
0.1432285297797666,0.14996598708093709,0.14659725843035185,0.0007391399999999999,3.1570714277643155e-06
0.14996598708093709,0.15702037377428169,0.1534931804276094,0.00075604,2.4415961309489507e-06
0.15702037377428169,0.16440659819021855,0.1607134859822501,0.0007746299999999998,3.0501065555177357e-06
0.16440659819021855,0.1721402699457026,0.16827343406796058,0.00077934,2.950772497724209e-06
0.1721402699457026,0.18023773293268194,0.17618900143919228,0.0007864500000000001,2.4431025357113695e-06
0.18023773293268194,0.1887160998583282,0.18447691639550506,0.0007919100000000002,2.7524186333712383e-06
0.1887160998583282,0.19759328841003618,0.19315469413418218,0.0007890599999999998,3.103065688423711e-06
0.19759328841003618,0.20688805912162206,0.2022406737658291,0.0007911100000000001,2.8797453591105717e-06
0.20688805912162206,0.21662005502074405,0.21175405707118305,0.0007830900000000001,2.4057604480346496e-06
0.21662005502074405,0.226809843141334,0.22171494908103903,0.0007651099999999999,2.490568877452346e-06
0.226809843141334,0.2374789579887712,0.2321444005650526,0.0007557199999999999,2.6642040712632793e-06
0.2374789579887712,0.24864994704965193,0.24306445251921155,0.0007320999999999999,2.8581389632657246e-06
0.24864994704965193,0.26034641844233664,0.2544981827459943,0.00070249,2.439581589808214e-06
0.26034641844233664,0.2725930908089736,0.26646975462565514,0.00067631,2.5456777093736427e-06
0.2725930908089736,0.28541584555443905,0.2790044681817063,0.00064252,2.7931060965646513e-06
0.28541584555443905,0.29884178154259267,0.29212881354851583,0.00060772,2.6976579348267254e-06
0.29884178154259267,0.31289927236543963,0.3058705269540162,0.00057061,2.8412907864789836e-06
0.31289927236543963,0.3276180263062294,0.3202586493358345,0.0005315399999999999,2.629507241544306e-06
0.3276180263062294,0.34302914912321286,0.33532358771472115,0.00049504,2.2403347964090724e-06
0.34302914912321286,0.3591652097867426,0.35109717945497776,0.00045058,2.2400576629479594e-06
0.3591652097867426,0.3760603093086394,0.367612759547691,0.00041036999999999985,2.5906530708176086e-06
0.3760603093086394,0.393750152809287,0.3849052310589632,0.00036929,2.1555973650011725e-06
0.393750152809287,0.41227212497475624,0.4030111388920216,0.00032983,1.8980099226995443e-06
0.41227212497475624,0.4316653690634254,0.4219687470190908,0.00029704957271,1.4347588669478198e-06
0.4316653690634254,0.4519708696290653,0.4418181193462454,0.00026046999999999995,1.5030053226786416e-06
0.4519708696290653,0.47323153913521065,0.462601204382138,0.00022604999999999997,1.5466361347561604e-06
0.47323153913521065,0.49549230864386395,0.4843619238895373,0.00019825,1.664582029619881e-06
0.49549230864386395,0.5188002227701878,0.5071462657070258,0.00017329999999999998,1.553691839887633e-06
0.5188002227701878,0.5432045391038576,0.5310023809370227,0.00014683,1.5689513483002482e-06
0.5432045391038576,0.5687568323071858,0.5559806857055216,0.0001277,1.1738469519774178e-06
0.5687568323071858,0.5955111031100121,0.5821339677085989,0.00011058000000000002,1.2368238893767934e-06
0.5955111031100121,0.6235238924317065,0.6095174977708593,9.295e-05,1.0040542814011265e-06
0.6235238924317065,0.6528544008714552,0.6381891466515808,8.112999999999999e-05,1.0003249472046728e-06
0.6528544008714552,0.6835646138193648,0.66820950734541,7.219000000000001e-05,8.169149282513481e-07
0.6835646138193648,0.7157194324527797,0.6996420231360723,6.169000000000001e-05,1.0451554908241633e-06
0.7157194324527797,0.7493868108946533,0.7325531216737164,5.6199999999999984e-05,8.285278108388406e-07
0.7493868108946533,0.7846378998238388,0.7670123553592461,5.087999999999999e-05,8.433712112705873e-07
0.7846378998238388,0.8215471968407938,0.8030925483323164,4.6e-05,6.71596356948617e-07
0.8215471968407938,0.8601927039064753,0.8408699503736345,4.209e-05,5.963220606350276e-07
0.8601927039064753,0.9006560921871456,0.8804243980468105,4.0759999999999996e-05,6.437973283572939e-07
0.9006560921871456,0.9430228746534638,0.9218394834203048,3.8889999999999995e-05,4.806852747207474e-07
0.9430228746534638,0.9873825867986226,0.9652027307260431,3.854e-05,5.84643766180173e-07
0.9873825867986226,1.0338289758574506,1.0106057813280365,3.8020000000000005e-05,4.4133320745214543e-07
1.0338289758574506,1.0824601989263642,1.0581445873919075,3.5829999999999994e-05,5.455730931781715e-07
1.0824601989263642,1.1333790304028648,1.1079196146646146,3.483999999999999e-05,5.651106086422492e-07
1.1333790304028648,1.1866930791829704,1.1600360547929176,3.388999999999999e-05,6.619227044502215e-07
1.1866930791829704,1.2425150160755967,1.2146040476292836,3.589e-05,5.379513608744621e-07
1.2425150160755967,1.3009628119144887,1.2717389139950428,3.395e-05,5.660535899247232e-07
1.3009628119144887,1.3621599868709182,1.3315613993927036,3.388e-05,5.806103110807879e-07
1.3621599868709182,1.4262358714940264,1.3941979291824724,3.374e-05,6.449289366537521e-07
1.4262358714940264,1.493325880030483,1.4597808757622546,3.396e-05,7.370662566327879e-07
1.493325880030483,1.5635717966010745,1.5284488383157786,3.3379999999999996e-05,6.672580710140112e-07
1.5635717966010745,1.6371220748390232,1.6003469357200488,3.232e-05,6.403970122770144e-07
1.6371220748390232,1.7141321516232484,1.6756271132311358,3.2409999999999996e-05,4.7078834593337364e-07
1.7141321516232484,1.7947647755696305,1.7544484635964395,3.2749999999999996e-05,7.0163499532639e-07
1.7947647755696305,1.8791903509744645,1.8369775632720475,3.221999999999999e-05,5.196793883412024e-07
1.8791903509744645,1.9675872979369864,1.9233888244557256,3.308000000000001e-05,5.663700203930005e-07
1.9675872979369864,2.0601424294220303,2.0138648636795082,3.2269999999999994e-05,5.800359184280597e-07
2.0601424294220303,2.15705134605968,2.1085968877408554,3.229e-05,5.659946996218292e-07
2.15705134605968,2.2585188495162605,2.20778509778797,3.1629999999999994e-05,6.595642500924576e-07
2.2585188495162605,2.3647593753102636,2.3116391124132623,3.185e-05,4.652508284069194e-07
2.3647593753102636,2.4759974459878986,2.4203784106490813,3.082e-05,6.433182208933161e-07
2.4759974459878986,2.592468145615978,2.5342327958019384,3.171e-05,5.175422688051778e-07
2.592468145615978,2.7144176165949068,2.6534428811054425,3.087e-05,5.742966713003446e-07
2.7144176165949068,2.842103579841711,2.778260598218309,3.083000000000001e-05,4.844928620044878e-07
2.842103579841711,2.9757958794424315,2.908949729642071,3.082e-05,5.563122624330133e-07
2.9757958794424315,3.1157770529249142,3.0457864661836727,2.8880000000000005e-05,7.592649954616046e-07
3.1157770529249142,3.2623429283571834,3.1890599906410486,3.069e-05,5.323454392278196e-07
3.2623429283571834,3.415803249533272,3.339073088945228,2.9949999999999993e-05,6.849574196011638e-07
3.415803249533272,3.5764823305677327,3.496142790050502,2.989e-05,6.47926178922665e-07
3.5764823305677327,3.74471974128222,3.6606010359249765,2.9419999999999993e-05,5.239513336179289e-07
3.74471974128222,3.920871024832596,3.832795383057408,2.8469999999999993e-05,5.813633402041776e-07
3.920871024832596,4.105308449093149,4.013089736962873,3.0229999999999997e-05,6.869194518525001e-07
4.105308449093149,4.2984217933858595,4.201865121239504,2.9439999999999996e-05,5.721450864946796e-07
4.2984217933858595,4.500619172217357,4.399520482801608,2.884e-05,4.989321931218123e-07
4.500619172217357,4.712327897764348,4.606473534990853,2.8280000000000004e-05,4.906033700115135e-07
4.712327897764348,4.93399538293033,4.8231616403473385,2.842e-05,4.77999302649434e-07
4.93399538293033,5.166090086881981,5.050042734906155,2.841e-05,4.773800023740604e-07
5.166090086881981,5.409102505063519,5.28759629597275,2.817e-05,6.54108808481687e-07
5.409102505063519,5.663546205781223,5.536324355422371,2.896e-05,5.467098560174854e-07
5.663546205781223,5.9299589155488235,5.796752560665023,2.9280000000000008e-05,5.013149376057348e-07
5.9299589155488235,6.2089036554874255,6.0694312855181245,2.6739999999999998e-05,5.333619783974052e-07
6.2089036554874255,6.5009699311815945,6.35493679333451,2.827999999999999e-05,6.694711843438057e-07
6.5009699311815945,6.806774978506158,6.653872454843876,2.758e-05,4.81473432981156e-07
6.806774978506158,7.1269650680565935,6.966870023281375,2.734e-05,5.604834222942496e-07
7.1269650680565935,7.462216870939709,7.2945909694981514,2.6780000000000008e-05,5.412793487038869e-07
7.462216870939709,7.8132388888109885,7.637727879875349,2.727e-05,5.636414344835374e-07
7.8132388888109885,8.180772951180769,7.997005919995878,2.6820000000000004e-05,6.009575692176537e-07
8.180772951180769,8.565595783153572,8.37318436716717,2.6260000000000003e-05,6.36801905357279e-07
8.565595783153572,8.96852064691375,8.76705821503366,2.6799999999999998e-05,5.923118547972417e-07
8.96852064691375,9.39039906042647,9.17945985367011,2.64e-05,5.839877281815516e-07
9.39039906042647,9.832122596986238,9.611260828706353,2.617e-05,3.5902646142032764e-07
9.832122596986238,10.294624769416025,10.063373683201132,2.6069999999999996e-05,3.5983792647988114e-07
10.294624769416025,10.778883002898993,10.53675388615751,2.602e-05,5.503635162326802e-07
10.778883002898993,11.285920700611948,11.03240185175547,2.487e-05,5.264108028273466e-07
11.285920700611948,11.816809406526113,11.55136505356903,2.5619999999999995e-05,5.25420466547192e-07
11.816809406526113,12.372671069945815,12.094740238235964,2.589e-05,5.301493500263229e-07
